
Integration time [ms]:   3.882
Averaging Nr. [scans]: 1000
Smoothing Nr. [pixels]: 0
Data measured with spectrometer [name]: 7414430SP
Wave   ;Sample   ;Dark     ;Reference
[nm]   ;[counts] ;[counts] ;[counts] 

288.544;  139.180;    7.153;  793.890
289.143;  143.189;    8.402;  681.602
289.742;  143.878;    7.062;  828.814
290.341;  131.105;    0.191;  789.841
290.940;  121.610;    0.321;  730.702
291.538;  123.292;    3.811;  881.108
292.137;  121.496;   -3.438;  792.581
292.736;  124.050;   -2.809;  975.101
293.335;  121.025;   -5.239;  735.086
293.934;  121.315;   -4.939;  781.677
294.532;  121.866;   -2.199; 1031.958
295.131;  107.976;   -6.831;  834.394
295.730;  107.475;   -6.620;  809.588
296.328;  105.453;   -6.471;  783.442
296.927;  104.940;   -6.571;  779.652
297.525;  105.525;   -7.391;  781.236
298.124;   98.260;   -9.402;  654.009
298.722;  101.172;   -5.781;  761.933
299.321;   99.810;   -6.351;  708.597
299.919;   97.816;   -8.661;  751.918
300.518;   93.346;  -11.922;  689.338
301.116;   94.843;   -6.941;  691.381
301.715;   95.020;   -5.471;  730.222
302.313;   94.791;   -8.361;  704.943
302.911;   91.041;   -9.082;  733.830
303.509;   95.744;   -4.571;  925.627
304.108;   92.097;   -7.111;  760.383
304.706;   92.060;   -7.681;  801.664
305.304;   87.884;   -9.162;  796.707
305.902;   92.404;   -6.761;  784.484
306.500;   88.118;   -6.921;  728.200
307.098;   85.950;   -6.491;  746.560
307.696;   83.975;   -6.941;  780.432
308.294;   85.477;   -6.301;  731.359
308.892;   87.389;   -4.771;  759.769
309.490;   82.967;   -5.141;  712.161
310.088;   81.458;   -2.912;  788.444
310.686;   86.555;   -0.421;  821.749
311.284;   81.862;   -3.461;  766.040
311.882;   79.294;   -6.282;  731.225
312.480;   76.842;   -3.632;  697.167
313.078;   78.417;   -2.112;  808.331
313.675;   78.955;   -1.931;  691.600
314.273;   74.582;   -1.442;  797.837
314.871;   73.590;   -3.002;  589.829
315.468;   71.615;   -2.252;  652.090
316.066;   74.069;   -1.091;  694.427
316.664;   67.261;   -4.512;  656.351
317.261;   71.665;   -0.062;  910.128
317.859;   67.946;   -0.952;  768.735
318.456;   69.124;    0.719;  830.096
319.054;   64.762;   -4.002;  787.828
319.651;   63.232;   -4.972;  759.928
320.249;   63.188;   -1.162;  810.188
320.846;   60.893;   -2.651;  714.286
321.443;   58.722;   -3.832;  832.135
322.041;   55.219;   -4.312;  812.315
322.638;   53.175;   -3.872;  701.456
323.235;   55.019;   -4.361;  665.683
323.833;   52.331;   -4.821;  740.354
324.430;   48.564;   -6.971;  615.900
325.027;   49.698;   -4.361;  876.855
325.624;   48.791;   -5.581;  644.532
326.221;   46.254;   -6.601;  689.717
326.818;   45.648;   -7.301;  818.332
327.415;   48.401;   -6.180;  748.828
328.012;   47.944;   -5.920;  690.585
328.609;   45.459;   -8.390;  731.389
329.206;   44.265;   -6.121;  778.621
329.803;   43.839;   -5.241;  737.841
330.400;   46.326;   -7.420;  704.260
330.997;   46.384;   -5.931;  817.147
331.594;   45.160;   -5.641;  788.185
332.191;   50.478;   -6.451;  728.722
332.787;   53.718;   -4.651;  844.463
333.384;   50.805;   -5.472;  763.093
333.981;   49.113;   -6.303;  815.687
334.578;   52.327;   -5.892;  708.378
335.174;   54.248;   -4.102;  731.469
335.771;   53.007;   -8.053;  836.456
336.367;   50.537;   -7.363;  710.631
336.964;   56.111;   -6.243;  793.266
337.561;   53.332;   -5.653;  731.112
338.157;   47.869;   -7.074;  911.916
338.754;   47.448;   -5.474;  796.589
339.350;   45.098;   -5.624;  722.493
339.946;   47.300;   -5.054;  773.135
340.543;   40.546;   -6.695;  846.136
341.139;   33.700;   -6.215;  720.836
341.735;   32.664;   -5.746;  772.593
342.332;   31.408;   -7.335;  691.472
342.928;   31.268;   -4.835;  795.394
343.524;   26.123;   -4.586;  761.684
344.120;   22.719;   -3.946;  738.562
344.716;   25.434;   -4.835;  723.717
345.313;   23.474;   -5.325;  795.342
345.909;   19.323;   -6.535;  627.336
346.505;   20.939;   -4.725;  740.247
347.101;   21.503;   -4.164;  827.864
347.697;   21.851;   -5.274;  785.398
348.293;   15.600;   -7.145;  627.244
348.889;   17.318;   -4.364;  745.914
349.485;   16.808;   -6.404;  688.205
350.081;   17.278;   -7.534;  772.592
350.676;   12.215;   -6.995;  691.606
351.272;   17.899;   -3.544;  809.530
351.868;   16.695;   -5.324;  780.497
352.464;   14.549;   -7.204;  723.932
353.059;   10.401;   -6.894;  646.017
353.655;   14.401;   -3.754;  777.063
354.251;   14.845;   -6.143;  759.845
354.846;    9.464;   -9.464;  740.646
355.442;    7.221;   -7.555;  753.071
356.038;    9.437;   -5.474;  751.708
356.633;    8.714;   -5.914;  728.594
357.229;    7.340;   -8.944;  724.757
357.824;    5.620;   -6.794;  703.600
358.420;    4.929;   -5.754;  679.726
359.015;    5.313;   -5.664;  695.357
359.610;    6.814;   -8.004;  763.920
360.206;    0.474;   -8.815;  603.240
360.801;    2.971;   -8.834;  646.503
361.396;    6.326;   -6.274;  725.975
361.992;    1.112;   -8.574;  668.220
362.587;   -1.015;   -9.265;  670.160
363.182;    1.374;   -5.484;  689.631
363.777;    1.910;   -5.164;  738.242
364.372;    2.015;   -6.954;  737.314
364.967;   -2.340;   -7.065;  680.744
365.563;    1.981;   -5.684;  815.567
366.158;   -0.998;   -6.484;  685.161
366.753;   -0.635;   -8.004;  649.263
367.348;   -2.727;  -10.114;  746.056
367.942;   -2.569;   -7.764;  697.298
368.537;   -3.197;   -4.554;  754.245
369.132;   -2.394;   -7.664;  703.428
369.727;   -6.402;   -8.905;  638.079
370.322;   -5.661;   -4.945;  580.186
370.917;   -6.113;   -7.095;  710.646
371.511;   -2.487;   -6.574;  861.834
372.106;   -6.439;   -6.515;  776.964
372.701;   -9.786;   -8.225;  585.988
373.296;   -4.000;   -4.494;  863.135
373.890;   -8.197;   -7.965;  647.840
374.485;  -11.164;   -9.745;  691.199
375.079;   -6.528;   -5.554;  738.685
375.674;   -5.054;   -4.724;  812.970
376.268;   -9.200;   -8.365;  691.759
376.863;  -15.134;   -8.126;  580.327
377.457;   -9.563;   -6.045;  662.490
378.052;  -10.409;   -6.835;  764.884
378.646;  -11.341;   -9.375;  741.167
379.240;  -12.542;   -6.185;  721.176
379.835;  -10.943;   -6.135;  636.978
380.429;  -13.232;   -8.365;  562.557
381.023;  -12.247;   -7.935;  779.205
381.617;  -14.797;   -8.325;  680.106
382.212;  -12.096;   -7.405;  685.303
382.806;  -10.226;   -4.155;  760.690
383.400;  -14.974;   -8.945;  672.281
383.994;  -15.856;   -8.365;  664.870
384.588;  -11.801;   -7.824;  697.701
385.182;  -11.603;   -7.984;  726.624
385.776;  -12.141;  -10.404;  706.875
386.370;  -15.371;   -7.335;  681.968
386.964;  -14.173;   -7.485;  684.155
387.558;  -12.361;   -8.174;  598.360
388.152;  -15.995;  -10.415;  681.959
388.745;  -13.821;   -9.595;  814.707
389.339;  -12.525;   -6.454;  747.642
389.933;  -11.469;   -5.804;  695.370
390.527;  -12.158;   -6.854;  859.029
391.120;  -18.492;   -7.665;  595.318
391.714;  -16.107;   -7.245;  711.633
392.308;  -12.167;   -4.514;  780.253
392.901;  -16.719;   -7.935;  642.460
393.495;  -18.411;   -8.585;  595.414
394.089;  -16.577;   -5.245;  760.452
394.682;  -16.464;   -6.305;  697.188
395.275;  -16.835;   -9.335;  719.927
395.869;  -18.961;   -7.375;  667.314
396.462;  -17.132;   -7.055;  616.609
397.056;  -12.800;   -5.434;  776.621
397.649;  -17.252;   -9.525;  731.575
398.242;  -14.687;   -7.574;  712.645
398.836;  -13.929;   -5.134;  766.408
399.429;  -15.281;   -6.544;  631.041
400.022;  -19.336;   -9.215;  665.902
400.615;  -15.955;   -8.105;  805.609
401.208;  -14.768;   -7.614;  691.451
401.802;  -16.726;   -8.085;  699.329
402.395;  -18.067;   -9.575;  683.502
402.988;  -18.344;   -9.285;  696.627
403.581;  -15.363;   -7.514;  646.878
404.174;  -13.508;   -6.404;  686.568
404.767;  -15.784;   -8.775;  638.583
405.360;  -18.608;   -7.415;  621.445
405.953;  -12.461;   -5.624;  759.034
406.545;  -12.465;   -6.474;  725.342
407.138;  -17.033;   -8.445;  618.350
407.731;  -15.297;  -10.044;  613.303
408.324;  -11.389;   -8.484;  660.554
408.917;  -11.927;   -7.624;  681.864
409.509;  -14.381;   -8.304;  740.396
410.102;  -16.530;   -8.495;  643.948
410.695;  -10.147;   -7.824;  665.758
411.287;  -11.056;   -7.754;  599.821
411.880;  -12.267;   -9.294;  585.421
412.472;  -15.576;   -8.814;  613.092
413.065;  -12.463;   -6.674;  629.408
413.657;  -11.148;   -9.664;  576.678
414.250;  -10.884;  -10.264;  646.681
414.842;  -12.056;   -8.664;  676.353
415.434;   -9.649;   -8.584;  570.463
416.027;   -6.152;   -9.423;  652.196
416.619;   -8.115;  -10.764;  713.400
417.211;   -8.557;   -7.404;  599.352
417.804;   -4.623;   -7.383;  628.499
418.396;   -8.928;   -8.334;  607.643
418.988;   -7.181;   -9.633;  659.238
419.580;   -9.545;  -10.554;  568.276
420.172;   -7.988;   -8.683;  536.196
420.764;   -3.263;   -9.713;  672.482
421.356;   -4.976;  -11.303;  636.898
421.948;   -5.326;   -8.453;  677.661
422.540;   -0.775;   -5.793;  680.027
423.132;   -1.706;   -7.162;  600.641
423.724;   -5.062;   -7.933;  561.267
424.316;   -1.956;   -9.083;  621.345
424.908;    0.934;   -8.392;  591.517
425.500;    1.327;   -8.062;  647.978
426.092;    2.456;   -9.692;  648.268
426.683;    1.786;   -8.223;  684.836
427.275;    3.883;   -8.602;  641.471
427.867;    5.454;   -8.382;  668.948
428.458;    5.548;  -10.472;  732.344
429.050;    4.461;   -9.112;  680.749
429.642;    6.415;   -7.752;  743.124
430.233;    7.017;   -8.832;  569.356
430.825;    8.623;   -8.292;  724.809
431.416;    5.666;   -7.522;  698.241
432.008;    9.219;   -9.262;  651.723
432.599;    9.697;   -6.441;  656.073
433.190;    7.288;   -9.222;  637.670
433.782;    6.358;  -11.832;  590.395
434.373;   13.890;   -7.121;  884.765
434.964;   12.638;   -9.141;  602.920
435.556;    9.534;   -9.332;  634.537
436.147;   12.731;   -8.892;  758.490
436.738;   12.412;   -8.151;  701.099
437.329;   18.637;   -8.281;  721.723
437.920;   10.370;   -9.062;  666.688
438.511;   10.543;  -11.182;  564.526
439.103;   17.810;   -7.461;  623.998
439.694;   18.719;   -8.541;  681.583
440.285;   20.170;   -7.351;  764.432
440.876;   19.098;   -8.201;  845.738
441.466;   17.743;  -10.381;  575.162
442.057;   22.617;   -7.620;  665.814
442.648;   21.778;   -8.461;  746.255
443.239;   19.719;   -8.991;  620.477
443.830;   24.349;   -7.910;  704.958
444.421;   26.948;   -7.340;  655.474
445.011;   22.522;   -8.981;  693.619
445.602;   22.881;   -9.341;  743.126
446.193;   24.220;  -11.390;  488.117
446.783;   28.336;  -11.240;  640.397
447.374;   23.796;   -8.471;  692.759
447.964;   24.761;   -8.471;  713.770
448.555;   33.933;   -6.590;  822.742
449.145;   29.815;   -8.200;  662.853
449.736;   30.655;  -11.040;  803.179
450.326;   30.603;   -9.640;  713.626
450.917;   34.920;   -9.480;  675.324
451.507;   33.941;   -8.020;  600.661
452.097;   34.174;  -10.210;  746.267
452.688;   36.633;   -7.810;  742.160
453.278;   35.425;   -9.360;  566.840
453.868;   40.924;   -8.669;  793.550
454.458;   37.745;  -10.950;  651.141
455.048;   38.222;  -10.200;  711.783
455.639;   39.882;   -9.369;  567.096
456.229;   44.256;   -7.739;  710.694
456.819;   45.171;   -8.939;  751.158
457.409;   45.503;   -7.169;  773.993
457.999;   48.190;   -7.779;  737.505
458.589;   48.199;   -7.039;  686.606
459.179;   47.497;   -9.019;  717.658
459.769;   45.424;   -8.909;  627.099
460.358;   51.105;   -8.659;  797.262
460.948;   50.349;   -8.209;  689.503
461.538;   51.909;   -9.879;  660.677
462.128;   50.809;   -9.379;  664.934
462.717;   57.463;   -9.158;  710.326
463.307;   59.822;   -8.638;  705.846
463.897;   55.931;   -8.869;  656.942
464.486;   55.193;   -7.409;  837.128
465.076;   60.103;   -9.618;  733.776
465.666;   62.977;   -7.578;  652.900
466.255;   60.886;   -9.369;  785.651
466.845;   59.700;  -10.049;  666.749
467.434;   62.932;   -8.168;  725.873
468.023;   63.323;   -9.188;  658.357
468.613;   60.614;   -9.849;  713.946
469.202;   64.916;  -12.958;  646.507
469.791;   69.832;   -9.488;  737.811
470.381;   71.606;   -6.468;  742.813
470.970;   71.275;  -10.248;  711.099
471.559;   70.901;  -11.428;  733.291
472.148;   74.171;   -9.738;  675.737
472.738;   76.448;   -7.877;  765.466
473.327;   75.377;  -11.868;  637.529
473.916;   75.908;   -8.578;  737.446
474.505;   79.663;  -11.137;  751.703
475.094;   82.202;   -9.407;  806.570
475.683;   81.346;   -9.977;  797.699
476.272;   82.958;  -10.807;  730.632
476.861;   85.691;  -11.017;  706.754
477.449;   91.570;  -10.316;  728.487
478.038;   85.792;  -10.187;  692.513
478.627;   87.235;  -12.458;  714.852
479.216;   94.233;  -10.127;  769.441
479.805;   96.834;   -6.256;  783.375
480.393;   96.860;   -8.737; 1008.945
480.982;   95.498;   -9.087;  874.501
481.571;  101.054;   -7.806;  858.333
482.159;  101.719;  -10.596;  705.386
482.748;  101.510;  -11.507;  821.385
483.336;  105.469;   -8.366;  858.209
483.925;  106.129;   -7.497;  774.373
484.513;  112.594;   -8.326;  758.962
485.102;  109.336;  -10.277;  810.965
485.690;  118.057;   -8.256; 1011.050
486.278;  119.495;   -7.146;  979.329
486.867;  119.738;   -7.986;  809.662
487.455;  121.846;   -9.926;  898.229
488.043;  123.094;  -10.026;  748.361
488.631;  131.768;   -7.226; 1005.079
489.220;  134.450;   -8.696;  908.626
489.808;  133.755;  -12.276;  741.415
490.396;  141.023;   -9.386;  914.645
490.984;  146.262;   -8.506;  830.161
491.572;  155.139;   -8.226;  940.315
492.160;  160.546;   -9.836;  919.081
492.748;  171.457;  -10.316;  884.341
493.336;  190.098;   -7.146; 1019.693
493.924;  209.583;   -7.965;  958.077
494.512;  233.224;  -10.316; 1066.638
495.100;  265.765;  -10.186; 1103.280
495.687;  313.092;   -7.805; 1206.373
496.275;  370.688;   -9.686; 1150.796
496.863;  440.163;  -11.566; 1281.171
497.451;  526.456;  -11.406; 1386.805
498.038;  646.715;   -8.235; 1556.729
498.626;  753.051;   -7.485; 1741.407
499.214;  896.268;   -8.646; 2016.609
499.801; 1116.615;   -9.936; 2220.633
500.389; 1288.030;   -8.056; 2312.494
500.976; 1450.742;   -6.166; 2744.849
501.564; 1632.824;   -9.126; 3148.565
502.151; 1898.700;  -12.456; 3515.999
502.738; 2271.270;  -10.056; 3971.274
503.326; 2669.679;  -10.605; 4403.796
503.913; 2990.161;  -10.576; 5161.749
504.500; 3456.768;   -9.056; 5986.420
505.088; 3902.987;  -10.136; 6381.201
505.675; 4589.639;   -9.075; 6925.547
506.262; 5097.537;  -11.346; 7619.060
506.849; 5759.794;   -9.376; 8733.969
507.436; 6285.806;   -7.365; 9790.121
508.023; 6607.532;   -8.686; 9985.472
508.610; 7015.695;   -8.846;10434.618
509.197; 7952.372;   -9.077;11198.435
509.784; 9145.347;  -10.246;12391.194
510.371; 9539.134;   -9.825;13603.713
510.958;10135.260;  -10.896;14426.586
511.545;10927.446;   -9.006;15243.775
512.132;11755.380;   -8.765;15945.876
512.719;12650.812;   -8.286;16340.369
513.305;14432.747;   -9.256;18011.766
513.892;16427.500;  -11.106;19754.971
514.479;17848.906;   -8.576;20967.805
515.066;18918.066;   -9.046;22299.793
515.652;19250.057;  -10.676;22908.660
516.239;20440.537;  -10.166;23798.875
516.825;20674.313;  -11.266;25567.275
517.412;19693.816;   -7.446;28154.959
517.998;18982.207;  -10.916;28344.111
518.585;17271.793;   -9.166;27134.219
519.171;17567.746;  -10.135;27268.576
519.758;21249.158;   -8.806;28964.129
520.344;25953.525;   -6.716;30664.494
520.930;28391.973;  -10.166;32550.605
521.516;28761.121;   -9.615;35422.895
522.103;29968.393;   -8.656;38280.004
522.689;32360.313;   -9.646;37835.117
523.275;33103.664;  -10.786;37288.613
523.861;33930.457;   -9.266;37281.395
524.447;33974.891;   -8.285;37846.949
525.033;33949.902;   -9.426;38321.949
525.619;33266.012;   -9.836;38579.285
526.205;33963.961;   -8.136;40622.875
526.791;34904.133;   -9.986;42258.836
527.377;36581.809;   -8.236;42966.902
527.963;35690.527;  -12.117;42018.949
528.549;34149.250;   -8.376;42476.828
529.135;34865.801;   -8.696;41854.852
529.721;36322.434;   -9.686;41237.711
530.306;38554.746;   -8.616;41259.445
530.892;41723.832;   -9.396;41506.047
531.478;42088.758;   -9.926;43559.613
532.063;43517.152;  -10.236;47695.563
532.649;45811.488;   -8.257;50808.324
533.235;47428.480;  -11.476;51787.500
533.820;46507.410;   -8.156;52145.035
534.406;44610.699;  -12.257;51133.488
534.991;42468.133;   -8.686;49996.805
535.576;40381.492;   -9.426;48882.852
536.162;40566.855;   -8.436;46942.285
536.747;39653.008;  -10.957;45711.746
537.333;38505.734;  -13.147;48510.180
537.918;41373.910;   -9.027;50439.891
538.503;42714.617;   -8.256;50863.711
539.088;46036.813;  -10.576;50906.922
539.673;47706.145;  -10.907;52621.965
540.259;47800.004;   -9.126;52368.094
540.844;45198.578;   -9.026;50879.109
541.429;46133.176;   -9.597;52077.777
542.014;49826.273;  -11.447;52716.695
542.599;51022.586;   -9.236;52363.281
543.184;48936.820;  -12.267;53187.137
543.769;50178.285;  -10.367;54697.605
544.354;50505.473;  -10.887;53913.914
544.938;44757.281;  -11.687;49680.164
545.523;39917.129;   -8.286;47386.277
546.108;40672.465;   -9.317;49151.949
546.693;42242.914;  -10.187;51384.637
547.278;40259.922;   -9.926;51853.254
547.862;37437.926;   -9.196;51173.750
548.447;34505.008;   -9.657;51691.395
549.031;33780.734;   -9.127;52456.703
549.616;38578.500;  -10.836;52714.516
550.201;44556.367;   -8.507;52414.598
550.785;47872.547;  -10.537;52355.059
551.370;49351.906;  -11.727;54589.453
551.954;50496.012;   -9.457;58267.348
552.538;50374.469;   -8.147;59062.176
553.123;48485.234;   -9.397;58115.285
553.707;46113.465;   -9.558;56556.285
554.291;47169.102;   -9.417;56201.668
554.876;47507.703;   -7.627;55335.762
555.460;45467.191;  -10.457;54155.703
556.044;42898.023;  -10.078;53721.484
556.628;43065.836;   -9.407;53731.016
557.212;43253.223;   -7.957;54312.531
557.796;43272.137;  -11.327;53797.773
558.380;47462.750;  -10.868;56145.984
558.964;48808.656;   -9.637;57277.930
559.548;47021.773;   -8.807;56459.641
560.132;47849.824;  -10.187;54434.543
560.716;47380.410;   -9.868;54800.617
561.300;48163.508;  -10.217;57606.945
561.884;48542.434;   -4.947;58972.445
562.467;47726.867;   -9.588;57327.570
563.051;46143.426;  -11.138;54962.434
563.635;44229.133;   -9.358;52594.473
564.219;43694.629;   -9.797;50610.410
564.802;44101.508;   -9.918;49551.180
565.386;41819.617;  -10.838;48370.953
565.969;40833.488;   -8.037;48178.871
566.553;40361.906;   -5.667;49957.305
567.136;38895.289;   -8.258;50369.594
567.720;38556.332;  -11.278;49492.004
568.303;41151.129;   -9.028;50616.352
568.887;41038.418;   -7.508;50727.148
569.470;39702.402;  -11.068;51698.379
570.053;40069.117;  -10.028;52122.078
570.637;38681.852;  -11.077;52536.438
571.220;38353.102;   -8.747;51186.098
571.803;39953.355;   -8.868;51032.762
572.386;42019.480;  -10.608;49609.887
572.969;41812.402;  -10.548;48285.926
573.552;39246.406;   -7.898;47624.285
574.135;39930.840;   -9.918;45498.641
574.718;36171.031;  -10.328;41970.434
575.301;33282.441;   -9.548;41447.137
575.884;30393.850;   -8.768;40923.836
576.467;33829.375;   -9.858;45267.723
577.050;34150.055;  -11.018;48175.543
577.633;34877.707;  -10.048;47729.328
578.216;34010.152;  -10.268;47579.793
578.799;31424.893;  -11.808;47820.996
579.381;31410.922;   -7.338;48115.551
579.964;34326.625;   -9.728;47333.766
580.547;35685.348;   -8.928;46668.969
581.129;37012.902;   -9.149;44466.141
581.712;37500.125;  -11.359;44164.922
582.294;35262.570;  -10.738;46477.855
582.877;33672.180;   -8.788;48244.254
583.459;33710.348;   -9.859;47437.895
584.042;36068.391;   -9.649;46943.219
584.624;36057.742;  -10.529;46792.227
585.206;34446.766;  -10.298;46557.250
585.789;33962.348;  -11.029;45793.773
586.371;31957.234;   -9.359;43836.391
586.953;31489.176;   -8.799;42972.492
587.536;31467.256;   -8.928;42487.211
588.118;31378.047;   -9.180;42086.414
588.700;30799.525;  -10.519;43389.930
589.282;29725.973;   -8.098;43646.039
589.864;29700.521;   -8.139;43438.109
590.446;31026.277;  -10.509;43151.926
591.028;31543.396;  -11.119;42781.867
591.610;33290.906;  -10.019;42839.098
592.192;33379.867;   -8.838;42820.402
592.774;30187.201;  -11.549;40724.277
593.356;27276.162;  -11.609;39874.789
593.937;26561.037;  -10.019;39980.648
594.519;28788.971;   -7.839;42069.633
595.101;31529.125;  -10.779;42976.031
595.683;33003.008;  -10.049;44084.441
596.264;32878.109;   -9.969;43478.797
596.846;32516.363;   -9.699;43803.672
597.427;31517.779;  -10.970;42986.934
598.009;31024.139;  -13.090;42832.219
598.591;30347.879;   -9.509;42580.086
599.172;30438.418;   -9.019;43061.805
599.753;30992.363;  -13.310;41691.469
600.335;31913.344;  -11.010;40692.520
600.916;31317.869;  -10.309;39982.422
601.498;30304.863;   -8.209;40318.617
602.079;30045.016;  -11.440;40670.609
602.660;31530.043;   -8.690;41450.898
603.241;32968.305;  -12.759;41137.738
603.823;31716.660;  -10.409;38868.797
604.404;31072.340;  -11.790;38182.785
604.985;32582.594;  -10.280;38078.047
605.566;34097.938;   -8.059;38056.633
606.147;31577.359;   -8.960;37020.418
606.728;29186.273;  -10.710;37883.359
607.309;28531.740;  -12.760;38748.273
607.890;27156.254;   -9.959;38850.230
608.471;27321.914;   -9.780;37457.918
609.051;28836.018;   -8.940;36066.457
609.632;29682.883;  -12.070;35991.074
610.213;29970.184;   -9.610;37402.641
610.794;30426.859;   -8.750;38383.363
611.374;30903.248;  -11.100;40562.387
611.955;31211.980;  -12.200;38533.727
612.536;31264.371;  -10.410;36951.789
613.116;30512.037;  -10.010;37197.891
613.697;28804.553;  -10.480;38411.125
614.277;28658.064;  -12.751;38673.938
614.858;27716.391;  -11.600;37075.863
615.438;27480.115;   -8.190;35092.906
616.019;26159.270;   -8.941;33666.301
616.599;27737.965;  -13.540;34189.023
617.179;30499.625;  -10.890;36952.047
617.760;30052.393;   -7.610;39582.574
618.340;28232.557;  -14.441;38943.977
618.920;27862.365;   -9.180;37594.156
619.500;29920.105;  -11.881;37866.938
620.080;31629.066;   -9.870;37869.043
620.660;30435.734;  -13.211;36868.617
621.241;29334.070;  -11.921;36352.309
621.821;28984.818;  -10.271;35459.520
622.401;30006.322;   -8.200;35207.414
622.980;31472.555;  -11.141;35980.422
623.560;30833.223;  -14.321;37351.328
624.140;29302.732;   -9.360;34388.582
624.720;25446.443;   -7.481;32368.764
625.300;22924.068;  -12.730;32638.629
625.880;26769.188;  -11.441;34599.035
626.459;30001.998;  -10.971;36831.738
627.039;33639.723;   -9.011;38299.098
627.619;34382.707;   -8.521;38289.574
628.198;32495.553;   -9.861;37220.695
628.778;31343.383;   -8.841;37632.563
629.357;31568.639;   -9.891;38003.012
629.937;32038.861;  -11.871;38402.039
630.516;31610.496;  -10.641;37868.801
631.096;33470.273;  -11.391;35760.410
631.675;35090.566;   -6.622;35225.219
632.254;32201.029;  -13.002;35130.289
632.834;30683.021;  -11.622;35794.570
633.413;31792.895;   -8.321;35788.922
633.992;30011.256;   -7.732;34532.863
634.571;29814.871;  -10.992;33590.113
635.151;29283.537;  -10.422;34943.863
635.730;30535.844;  -11.511;35352.523
636.309;30906.113;   -7.901;35366.605
636.888;30027.063;  -11.452;36165.637
637.467;29088.686;  -10.672;37515.902
638.046;29384.178;   -9.301;39288.695
638.625;30787.113;  -11.452;38279.699
639.204;31588.229;  -12.262;37741.598
639.782;31886.924;  -11.892;38364.551
640.361;30746.564;  -11.411;36740.621
640.940;25527.629;  -11.501;34950.082
641.519;27261.779;  -10.921;34137.398
642.097;30984.266;  -10.101;35654.258
642.676;29922.955;  -10.821;35637.957
643.255;30997.656;   -8.631;36567.074
643.833;33485.316;  -11.411;37809.434
644.412;36095.078;  -12.021;37337.293
644.990;36307.195;  -12.271;37018.531
645.569;35066.160;   -9.741;36518.469
646.147;32820.254;   -9.051;36186.430
646.726;32757.922;  -13.861;36267.688
647.304;33125.148;   -9.461;36647.625
647.882;32764.230;  -13.171;39286.742
648.461;33286.344;  -11.911;39157.703
649.039;32158.785;   -9.541;35412.883
649.617;31403.686;   -8.901;34744.918
650.195;29485.289;   -8.591;35403.098
650.773;28818.035;  -13.031;35053.797
651.352;27698.400;  -12.211;33756.816
651.930;25459.049;  -11.361;31868.773
652.508;22613.053;   -8.601;33121.551
653.086;25247.240;   -9.991;33564.793
653.663;29544.203;  -11.931;34054.668
654.241;31815.346;  -10.821;35693.309
654.819;33238.598;   -9.341;36422.906
655.397;31082.758;  -10.851;38213.484
655.975;29806.182;  -11.461;39507.625
656.553;29896.908;   -8.841;39498.223
657.130;29308.996;  -10.371;40395.480
657.708;29906.748;  -11.071;39242.020
658.286;29579.605;  -11.141;38920.020
658.863;30451.717;  -10.861;40202.898
659.441;34803.246;  -11.181;39677.938
660.018;35204.766;  -10.851;40413.355
660.596;34468.219;  -12.571;39931.414
661.173;34788.504;  -12.141;39604.531
661.750;34625.582;  -11.571;39700.070
662.328;32173.168;  -10.780;39292.809
662.905;29685.100;  -10.750;38235.648
663.482;26419.816;  -11.320;36212.305
664.060;25595.447;  -10.160;35944.945
664.637;30274.549;  -13.120;35170.785
665.214;32514.260;  -11.500;34197.523
665.791;30795.148;  -12.430;34549.520
666.368;28471.023;   -9.840;35118.578
666.945;27475.828;  -11.290;36019.418
667.522;28027.307;  -13.540;36048.438
668.099;28595.445;  -10.250;36243.914
668.676;27922.049;  -11.270;35958.875
669.253;26917.820;   -8.210;37384.730
669.830;26247.488;   -9.710;36779.629
670.407;25700.393;   -9.700;35231.289
670.984;26309.973;   -9.190;35544.270
671.560;25513.943;   -9.560;35466.867
672.137;24997.594;  -11.820;34280.863
672.714;27566.189;  -12.460;34632.863
673.290;32024.922;  -10.940;35135.422
673.867;33051.336;  -10.510;36114.480
674.443;29712.256;  -12.110;36152.859
675.020;30864.170;  -11.760;35327.238
675.596;31957.461;   -9.380;35795.176
676.173;30632.559;  -11.120;35430.355
676.749;29374.055;  -13.390;33549.516
677.326;28493.475;  -12.600;32210.012
677.902;27555.887;  -10.830;32068.871
678.478;27330.084;  -12.400;32583.891
679.054;29259.508;   -8.610;32088.928
679.631;29624.287;  -11.640;30978.848
680.207;29452.326;   -8.140;33160.887
680.783;30415.674;  -12.300;35570.363
681.359;29396.416;  -10.910;36125.184
681.935;29363.840;  -11.040;35240.922
682.511;30350.373;  -11.130;34429.961
683.087;30787.609;  -11.080;34463.680
683.663;32857.809;  -10.530;34648.898
684.239;32436.096;  -12.120;34546.457
684.815;29932.592;   -8.870;35586.375
685.390;28972.943;   -8.940;35821.895
685.966;29076.914;  -12.109;35085.871
686.542;28172.279;  -13.539;34198.230
687.118;27874.695;  -10.379;32847.707
687.693;28141.936;  -10.189;32794.027
688.269;27009.623;  -12.939;33072.367
688.844;25790.086;   -8.679;33141.664
689.420;26680.787;  -10.919;33965.742
689.995;27140.707;   -7.489;34655.523
690.571;26629.508;  -12.199;33576.742
691.146;26525.516;   -8.979;32657.219
691.722;27933.119;   -9.119;32526.979
692.297;26618.746;  -10.519;33014.617
692.872;26079.955;  -10.629;34012.254
693.448;26550.236;  -12.119;34237.434
694.023;27450.904;   -8.219;34142.672
694.598;25855.826;  -13.209;34132.031
695.173;24799.877;  -11.879;34205.250
695.748;25672.822;  -12.039;32882.488
696.323;25515.107;  -11.779;32864.906
696.898;26163.775;  -10.219;33170.004
697.473;27135.346;  -13.639;32432.984
698.048;27509.582;  -11.239;31649.303
698.623;29617.316;  -10.859;30778.141
699.198;31766.182;  -13.379;31140.119
699.773;32501.145;  -13.409;31764.299
700.348;32726.182;  -12.329;31780.816
700.922;32748.281;   -8.749;32046.375
701.497;32412.715;  -12.449;32603.574
702.072;31279.748;   -8.879;34799.871
702.646;29528.693;  -10.719;35793.172
703.221;28444.617;   -8.469;35201.590
703.795;28531.086;  -11.389;34764.527
704.370;28449.938;  -12.499;34307.367
704.944;28156.404;  -11.449;33509.887
705.519;27603.221;  -10.659;31388.584
706.093;27012.355;  -12.909;31340.104
706.668;27214.492;  -13.509;32630.281
707.242;26585.744;  -10.049;32728.779
707.816;24686.244;  -10.629;32947.238
708.390;24027.586;  -11.829;33277.855
708.965;24183.900;  -11.159;33834.336
709.539;25133.459;  -11.069;33709.273
710.113;24723.557;  -10.908;33044.313
710.687;23220.836;   -9.488;31953.992
711.261;23205.227;  -13.068;30505.949
711.835;25833.105;  -12.748;30262.369
712.409;27119.783;  -10.678;31254.447
712.983;26331.650;  -11.658;32754.986
713.557;26816.730;  -13.718;34018.824
714.131;27549.180;  -13.388;34579.625
714.704;27788.543;   -9.818;33890.262
715.278;28369.637;  -11.818;33531.102
715.852;29455.957;  -11.328;33601.660
716.425;29951.857;   -9.118;33515.117
716.999;30242.838;  -10.188;33185.555
717.573;30443.760;   -9.808;33905.996
718.146;32889.719;  -11.478;35199.293
718.720;33029.355;  -10.998;35060.551
719.293;31100.818;   -9.508;34973.230
719.867;30325.512;  -12.138;36394.449
720.440;28945.877;  -11.288;36663.008
721.013;31216.340;  -11.428;35102.426
721.587;32493.936;  -11.698;33985.266
722.160;33513.609;  -11.608;33524.965
722.733;32677.512;  -11.428;32987.043
723.306;31584.619;  -12.518;33066.301
723.880;31523.918;   -7.408;33399.500
724.453;30466.203;  -11.048;33468.297
725.026;29159.846;  -11.678;33816.637
725.599;27748.361;  -10.978;32797.996
726.172;26811.021;   -8.838;33187.434
726.745;27698.055;  -11.438;35136.613
727.318;28381.744;   -9.828;35751.730
727.891;26885.654;  -10.868;35890.430
728.463;25009.863;  -11.348;34822.090
729.036;23637.354;  -11.608;32895.086
729.609;23832.525;  -14.738;31823.225
730.182;24938.994;   -8.448;31445.283
730.754;26132.828;  -11.228;32373.223
731.327;26182.002;  -12.018;33676.820
731.900;27900.797;  -13.748;33417.000
732.472;28229.766;  -10.928;31978.498
733.045;26969.510;   -9.478;30368.777
733.617;25481.195;  -12.967;30574.215
734.190;24596.014;  -11.707;31280.975
734.762;23378.395;  -11.067;31674.412
735.334;22657.457;  -10.587;31247.291
735.907;21811.568;  -11.947;29876.211
736.479;22284.734;  -11.667;29808.488
737.051;24692.164;  -10.187;30233.547
737.623;26856.297;   -6.887;31469.086
738.195;29518.779;  -12.117;31784.225
738.768;31504.301;  -14.077;32120.523
739.340;31097.049;  -12.207;32094.342
739.912;28265.014;   -8.977;31312.680
740.484;26294.264;  -11.017;31946.238
741.056;26815.666;  -13.517;32984.059
741.628;28587.832;  -11.507;33897.715
742.199;28908.943;   -7.597;33213.016
742.771;29582.848;  -12.227;31369.113
743.343;29315.504;  -12.427;31865.473
743.915;28021.158;   -9.827;32388.631
744.487;27152.641;  -10.007;31079.568
745.058;25425.271;  -11.887;30570.107
745.630;24368.850;  -10.787;29970.127
746.201;23552.535;  -10.887;29186.766
746.773;23390.719;   -9.707;28805.723
747.344;24341.934;  -11.137;29591.223
747.916;24609.619;  -11.887;31412.201
748.487;24006.404;   -9.707;32194.898
749.059;23435.102;  -10.027;32533.719
749.630;23344.525;  -11.787;32158.518
750.201;22262.713;  -12.767;30855.395
750.773;21784.201;  -11.497;28622.555
751.344;22527.787;   -9.937;28405.732
751.915;22933.723;  -11.567;28461.551
752.486;22239.547;  -13.267;27842.850
753.057;20277.441;  -10.627;27845.008
753.628;18836.289;  -11.657;27728.107
754.199;21003.844;  -12.097;27381.086
754.770;22820.594;  -11.447;25882.203
755.341;23047.285;  -11.997;25886.184
755.912;20831.881;  -10.207;26050.861
756.483;18923.707;  -10.937;26798.779
757.054;18773.367;  -11.527;27048.238
757.625;19020.016;  -12.886;26294.838
758.195;19442.102;  -11.226;26142.076
758.766;19558.578;  -12.366;26392.234
759.337;18369.500;  -11.946;26334.594
759.907;18360.158;  -13.856;27579.652
760.478;19383.795;   -9.606;28352.770
761.048;19294.223;  -11.606;27325.088
761.619;19239.123;  -11.036;26460.428
762.189;18621.797;  -12.206;26029.826
762.760;19771.141;   -9.666;26430.145
763.330;20777.834;   -9.796;26670.902
763.900;19076.139;  -10.896;26603.021
764.471;17595.408;  -11.726;25542.740
765.041;18039.174;   -9.656;24358.459
765.611;18933.908;  -11.276;23991.297
766.181;18819.496;  -12.116;24470.236
766.751;18299.637;  -12.376;24845.975
767.321;18109.262;  -11.626;24533.633
767.891;18359.402;  -10.426;24916.492
768.461;17517.484;  -13.456;24776.771
769.031;15582.225;  -11.616;24757.988
769.601;15330.997;  -11.356;24181.088
770.171;15458.536;  -11.586;23670.387
770.741;15829.055;  -12.696;22960.045
771.311;15986.355;  -10.226;22917.523
771.880;15724.165;  -11.146;23562.941
772.450;16402.629;  -11.716;24216.500
773.020;16734.654;  -13.226;24140.398
773.589;16345.730;  -12.586;24414.857
774.159;16104.198;  -10.246;23858.717
774.729;15581.379;  -11.586;22942.135
775.298;14666.003;  -15.926;22324.033
775.867;14666.274;  -10.426;21140.313
776.437;14684.365;  -11.416;20838.092
777.006;13304.285;  -12.766;20599.510
777.576;13197.014;  -13.666;20508.809
778.145;13752.518;  -10.066;20732.947
778.714;13533.461;  -10.276;21062.465
779.283;13752.709;  -12.086;20949.664
779.853;15055.880;  -14.016;20508.623
780.422;15574.153;  -12.376;20649.082
780.991;14510.824;   -9.246;21527.520
781.560;13671.698;   -9.775;22632.658
782.129;13516.024;  -12.495;23048.277
782.698;13167.075;  -11.775;23438.555
783.267;13360.286;  -10.065;23267.734
783.836;14020.855;  -12.455;22415.133
784.404;14847.503;  -13.385;20443.152
784.973;15658.743;  -11.045;19699.150
785.542;15109.653;   -9.505;19763.828
786.111;14094.256;   -9.385;20341.408
786.679;14010.954;  -13.475;20207.967
787.248;14055.442;  -11.245;19516.465
787.817;12135.560;  -12.485;18900.363
788.385;10300.224;  -11.165;17879.121
788.954;10982.969;  -11.755;17658.301
789.522;11983.410;   -9.625;17788.879
790.090;11642.129;   -9.665;18118.277
790.659;11080.543;   -9.295;18338.736
791.227;11904.388;  -12.175;18508.615
791.795;13304.143;  -12.145;17898.254
792.364;13332.783;  -11.575;17295.133
792.932;12071.779;  -11.085;16822.051
793.500;10920.535;  -11.345;17040.148
794.068;10645.532;  -12.565;17179.787
794.636;11624.019;  -12.105;16664.246
795.204;12295.528;  -11.995;16524.545
795.772;11783.910;  -12.615;17274.564
796.340;11336.471;  -12.425;17891.002
796.908;11116.289;  -11.455;17648.561
797.476;10600.208;  -12.165;17064.080
798.044;10236.354;  -15.795;16672.777
798.612;10314.189;  -10.985;17023.996
799.180;10950.248;  -12.055;16561.615
799.747;11286.157;  -12.525;15962.773
800.315;10109.523;  -14.765;15296.992
800.883; 8830.884;  -12.435;14801.771
801.450; 8704.291;  -11.295;14534.430
802.018; 9224.426;  -11.185;14173.248
802.585; 9267.591;  -11.625;14029.547
803.153; 8279.123;  -10.665;13836.846
803.720; 7816.976;  -10.275;13567.324
804.287; 7732.576;  -12.865;13360.622
804.855; 7970.017;  -12.324;13681.981
805.422; 8260.256;  -11.574;13536.560
805.989; 8100.090;  -11.004;13355.958
806.556; 8336.239;  -12.214;13747.896
807.124; 8806.068;  -13.304;13987.376
807.691; 8578.512;  -12.034;14038.674
808.258; 7925.840;  -11.014;14120.152
808.825; 7835.515;  -11.804;13860.111
809.392; 7764.299;  -11.544;13268.790
809.959; 7566.714;  -14.954;12680.389
810.526; 7907.518;  -10.214;12427.308
811.093; 8427.173;  -10.754;12030.105
811.659; 8086.379;  -12.194;11653.664
812.226; 6884.746;   -9.194;11637.183
812.793; 6475.479;   -9.644;11611.521
813.360; 7288.151;  -11.544;11885.181
813.926; 8220.497;  -12.814;12770.539
814.493; 8230.760;  -11.524;12677.638
815.060; 7910.151;  -12.254;11974.336
815.626; 7454.659;  -12.114;11594.715
816.193; 7055.321;  -11.994;11579.474
816.759; 6892.192;  -11.464;11666.972
817.325; 6588.401;  -10.444;11325.530
817.892; 6291.086;  -11.124;11105.369
818.458; 6137.446;  -11.864;10843.928
819.024; 6346.679;  -10.634;10714.406
819.591; 6432.773;  -10.554;10469.165
820.157; 6720.589;  -13.334;10235.523
820.723; 7030.568;  -13.044;10847.563
821.289; 7148.592;   -9.664;11040.980
821.855; 7313.166;  -10.994;10357.100
822.421; 7341.762;  -11.784; 9978.918
822.987; 7304.879;  -12.554; 9754.177
823.553; 7698.129;  -12.554;10065.755
824.119; 7603.411;   -8.544;10036.294
824.685; 6664.846;  -12.144;10029.192
825.251; 6090.345;  -12.754;10199.230
825.816; 5647.306;  -11.354; 9820.189
826.382; 5362.353;  -11.004; 9297.248
826.948; 5397.793;  -11.004; 9381.347
827.513; 5339.311;  -12.474; 9450.726
828.079; 5308.257;  -13.084; 9472.444
828.645; 5444.035;  -10.813; 9292.643
829.210; 5234.008;  -11.593; 9065.341
829.776; 5142.183;  -12.633; 9132.620
830.341; 5171.665;  -10.473; 9092.878
830.906; 4997.863;   -8.763; 9078.557
831.472; 4720.325;  -13.453; 8534.535
832.037; 4127.325;  -12.173; 8677.874
832.602; 3887.433;  -14.093; 8628.692
833.167; 4146.949;  -13.593; 8879.031
833.733; 4685.448;  -10.793; 9189.790
834.298; 5102.312;  -14.783; 9052.608
834.863; 4739.043;  -11.023; 8895.087
835.428; 4455.116;  -11.113; 8824.266
835.993; 4884.874;   -9.983; 8845.385
836.558; 5141.595;  -13.003; 8888.563
837.123; 4956.744;  -10.733; 8966.582
837.688; 4537.847;   -9.683; 8617.860
838.253; 4350.435;  -12.253; 8590.699
838.817; 4368.587;  -11.643; 8443.797
839.382; 4336.209;  -11.953; 8799.356
839.947; 4411.546;  -11.443; 8810.595
840.511; 4738.294;  -10.843; 8796.394
841.076; 5015.066;  -13.533; 8347.231
841.641; 4865.982;  -11.743; 8224.330
842.205; 4335.025;  -10.013; 8223.349
842.770; 4002.136;  -11.023; 8622.107
843.334; 4063.451;  -14.273; 8410.386
843.898; 4447.435;  -11.323; 8337.465
844.463; 4857.057;  -10.263; 8506.283
845.027; 5058.656;  -10.353; 8280.962
845.591; 5008.961;  -12.163; 8231.141
846.156; 4852.286;  -12.263; 7969.179
846.720; 4832.571;  -11.553; 7768.278
847.284; 4662.709;  -12.393; 7630.957
847.848; 3884.327;  -12.623; 7472.395
848.412; 3237.093;  -11.863; 7437.394
848.976; 3153.551;  -10.203; 7674.592
849.540; 3360.172;  -10.603; 7836.011
850.104; 3586.090;  -12.423; 7913.669
850.668; 3620.877;  -14.613; 7694.508
851.232; 3634.690;  -12.873; 7756.887
851.796; 3873.365;  -14.192; 7926.545
852.359; 4099.248;  -13.652; 7827.844
852.923; 4036.025;  -11.402; 7641.163
853.487; 3726.978;  -12.022; 7342.501
854.050; 3527.921;  -15.202; 7042.820
854.614; 3515.051;  -14.592; 7151.338
855.177; 3448.157;  -12.572; 7105.077
855.741; 3441.984;   -9.932; 6989.675
856.304; 3393.164;  -12.192; 6596.634
856.868; 3279.105;  -13.462; 6356.272
857.431; 3285.273;  -11.542; 6468.571
857.995; 3422.739;  -12.062; 6373.210
858.558; 3266.714;  -11.142; 6324.448
859.121; 3103.495;  -11.742; 6408.327
859.684; 3130.143;  -10.332; 6347.886
860.247; 3208.850;  -11.962; 6321.264
860.810; 3254.148;  -12.332; 6301.903
861.374; 3171.982;  -10.292; 6607.881
861.937; 3146.910;  -12.062; 6408.200
862.500; 3451.886;  -11.702; 6572.639
863.062; 3915.666;  -13.852; 6387.297
863.625; 4074.889;  -12.972; 6190.836
864.188; 3626.120;  -10.292; 5807.254
864.751; 2809.358;  -12.382; 5682.413
865.314; 1991.590;  -13.232; 5547.492
865.876; 1533.936;  -12.772; 5500.150
866.439; 1430.750;  -11.952; 5415.909
867.002; 1615.222;   -9.332; 5501.567
867.564; 1980.357;  -11.712; 5413.946
868.127; 2234.692;  -12.012; 5160.325
868.689; 2120.274;  -11.882; 5133.183
869.252; 1911.324;  -11.572; 5252.382
869.814; 1854.976;  -10.692; 5297.141
870.377; 1911.724;  -12.392; 5390.919
870.939; 1974.293;  -10.582; 5599.898
871.501; 2030.292;  -12.782; 5248.336
872.063; 2065.149;  -15.612; 4854.235
872.626; 2127.179;  -13.922; 4817.074
873.188; 2119.777;  -13.832; 4987.732
873.750; 2071.164;  -10.962; 4868.651
874.312; 2131.579;  -11.022; 4779.330
874.874; 2203.390;  -13.152; 4866.348
875.436; 2155.113;  -13.401; 4718.887
875.998; 2055.950;   -8.891; 4660.005
876.560; 1958.611;  -12.591; 4462.964
877.122; 1883.460;  -14.531; 4145.042
877.683; 1835.083;  -10.781; 4056.481
878.245; 1753.619;  -14.281; 3950.740
878.807; 1706.727;  -10.311; 4058.958
879.369; 1661.638;  -13.201; 3954.677
879.930; 1626.812;  -12.061; 3941.495
880.492; 1626.849;   -9.181; 4067.014
881.053; 1649.592;  -12.051; 3859.633
881.615; 1623.211;  -11.501; 3776.071
882.176; 1529.341;  -12.221; 3734.750
882.738; 1423.671;   -8.931; 3678.489
883.299; 1356.621;  -13.571; 3405.407
883.860; 1364.653;  -12.331; 3351.106
884.422; 1311.346;  -10.201; 3394.044
884.983; 1183.732;  -12.521; 3166.443
885.544; 1067.026;  -12.291; 3189.802
886.105; 1007.340;  -12.991; 3160.360
886.666;  987.683;  -12.901; 3093.059
887.227;  981.495;  -12.061; 2941.957
887.788;  958.619;  -11.641; 2974.836
888.349;  910.620;  -14.691; 2721.214
888.910;  863.433;   -9.681; 2696.493
889.471;  859.265;   -9.971; 2560.172
890.032;  870.868;  -13.151; 2558.190
890.593;  849.572;  -12.051; 2567.669
891.153;  807.629;  -12.841; 2460.307
891.714;  773.607;  -13.561; 2372.046
892.275;  742.120;  -12.401; 2309.505
892.835;  708.039;  -13.191; 2382.543
893.396;  669.252;  -12.551; 2295.502
893.956;  644.678;  -11.981; 2162.420
894.517;  627.277;  -12.221; 2125.439
895.077;  594.939;  -12.021; 2086.978
895.638;  537.290;  -10.891; 2126.316
896.198;  485.299;  -13.171; 1838.275
896.758;  451.668;  -11.891; 1892.813
897.319;  427.091;  -12.491; 1792.232
897.879;  414.573;  -12.401; 1762.751
898.439;  384.933;  -13.431; 1661.149
898.999;  365.057;  -11.340; 1781.468
899.559;  356.297;  -13.930; 1703.347
900.119;  337.906;  -13.730; 1537.525
900.679;  318.736;   -9.210; 1638.384
901.239;  302.360;  -10.860; 1527.902
901.799;  283.946;  -11.450; 1456.441
902.359;  265.663;  -13.800; 1357.140
902.919;  259.892;  -12.130; 1331.118
903.479;  260.706;  -12.650; 1317.257
904.038;  256.126;  -16.110; 1262.595
904.598;  241.459;  -13.690; 1152.034
905.158;  228.784;  -10.290; 1240.893
905.717;  221.401;  -10.670; 1233.691
906.277;  219.821;  -14.040; 1217.330
906.836;  220.193;  -13.510; 1222.408
907.396;  215.869;  -11.530; 1193.047
907.955;  204.315;  -13.190; 1182.526
908.515;  193.297;  -12.950; 1099.364
909.074;  184.413;  -12.390; 1092.863
909.633;  179.058;  -10.340; 1069.121
910.192;  177.603;  -11.170; 1196.460
910.752;  172.293;  -14.200; 1029.960
911.311;  168.377;  -13.810; 1009.780
911.870;  164.384;  -12.750;  971.460
912.429;  164.322;  -12.380; 1094.080
912.988;  161.312;  -11.930; 1081.060
913.547;  155.628;  -10.990;  940.380
914.106;  152.861;  -11.200;  999.420
914.665;  150.575;  -13.150;  984.020
915.224;  148.775;  -13.310; 1035.760
915.782;  146.852;  -13.340;  922.560
916.341;  147.216;  -10.710; 1049.840
916.900;  143.813;  -12.980;  925.260
917.458;  142.051;  -13.060;  884.220
918.017;  140.936;  -10.900;  942.600
918.576;  140.081;  -11.630;  904.440
919.134;  139.502;  -12.860;  837.980
919.693;  139.694;  -15.160;  893.060
920.251;  139.547;  -13.470;  876.500
920.809;  138.472;  -13.700;  839.580
921.368;  139.587;  -13.420;  885.360
921.926;  139.383;  -14.710;  842.940
922.484;  139.983;  -12.560;  903.360
923.042;  139.494;  -11.930;  880.340
923.601;  140.195;  -10.270;  998.680
924.159;  138.110;  -12.960;  935.560
924.717;  137.486;  -13.040;  841.080
925.275;  140.328;  -12.560;  903.240
925.833;  140.665;  -13.040;  779.320
926.391;  143.250;  -13.360;  938.380
926.949;  142.082;  -13.940;  857.680
927.506;  142.908;   -9.400;  903.500
928.064;  141.902;  -10.940;  877.580
928.622;  139.690;  -13.180;  880.100
929.180;  137.621;  -12.730;  814.180
929.737;  135.690;  -12.840;  808.540
930.295;  135.579;  -11.810;  928.480
930.853;  137.287;  -13.650;  849.100
931.410;  141.310;  -13.580;  821.120
931.968;  144.127;  -12.020;  940.660
932.525;  146.517;  -13.320;  909.380
933.082;  148.457;  -13.800;  811.440
933.640;  152.936;  -11.380;  925.900
934.197;  155.287;  -11.480;  886.360
934.754;  158.860;  -13.220;  897.780
935.312;  158.662;  -14.950;  863.340
935.869;  157.717;  -10.940; 1012.980
936.426;  152.390;  -12.100;  872.800
936.983;  153.367;  -12.930;  889.020
937.540;  154.320;  -14.250;  838.280
938.097;  159.020;  -12.600;  940.120
938.654;  166.067;  -11.260;  898.860
939.211;  169.225;  -13.020;  952.480
939.768;  171.052;  -15.760;  915.420
940.324;  173.729;  -13.920;  904.200
940.881;  169.595;  -11.620;  878.500
941.438;  166.852;   -9.870; 1021.200
941.995;  164.631;  -13.920;  992.560
942.551;  162.282;  -12.830;  875.620
943.108;  163.671;  -11.980;  937.920
943.664;  166.067;  -13.740;  869.340
944.221;  171.715;  -12.670; 1088.140
944.777;  170.303;  -13.250;  869.680
945.334;  169.138;  -13.000;  884.840
945.890;  169.976;  -13.020;  946.480
946.446;  170.251;  -13.880;  947.020
947.003;  173.280;  -12.660;  964.940
947.559;  175.095;   -8.730; 1063.040
948.115;  171.241;  -11.960; 1026.540
948.671;  167.267;  -12.360;  967.300
949.227;  163.532;  -12.700;  859.560
949.783;  159.204;  -13.450;  858.900
950.339;  158.073;  -10.620;  991.000
950.895;  154.557;  -14.770; 1023.840
951.451;  153.172;  -13.650;  925.280
952.007;  153.489;  -11.180;  998.540
952.563;  151.647;  -11.680;  937.780
953.118;  150.771;  -13.280;  904.940
953.674;  153.213;  -12.510;  935.780
954.230;  153.997;  -12.220;  949.640
954.785;  149.814;  -12.190;  936.640
955.341;  143.878;  -12.270;  998.160
955.897;  139.205;  -14.900;  834.660
956.452;  139.502;  -12.520;  953.840
957.008;  139.377;   -9.410; 1083.640
957.563;  136.946;  -11.280; 1009.540
958.118;  135.260;  -13.470;  877.700
958.674;  136.521;  -12.190;  946.780
959.229;  137.515;  -12.760; 1013.980
959.784;  141.952;  -15.710;  832.400
960.339;  149.315;  -12.540; 1001.280
960.894;  151.190;  -11.680;  963.760
961.449;  146.262;  -11.410;  859.960
962.004;  144.996;  -10.430; 1212.840
962.559;  139.489;  -14.040;  860.140
963.114;  136.246;  -14.270;  742.480
963.669;  137.867;  -11.320;  915.500
964.224;  136.403;  -14.620;  874.340
964.779;  134.023;  -14.150;  828.420
965.334;  133.386;  -10.850; 1017.860
965.888;  132.981;  -14.530;  875.360
966.443;  135.137;  -13.520;  972.380
966.998;  131.720;  -13.370;  819.460
967.552;  128.878;   -9.960;  908.380
968.107;  124.055;  -12.360;  868.300
968.661;  124.851;  -12.270;  922.440
969.216;  124.030;  -12.140;  856.280
969.770;  124.430;  -11.860;  917.200
970.324;  123.509;  -12.170;  923.140
970.879;  121.711;  -14.160;  947.180
971.433;  120.112;  -12.940;  952.720
971.987;  116.165;  -10.180;  895.340
972.541;  115.375;  -12.130;  917.100
973.095;  115.890;  -14.980; 1009.460
973.649;  113.847;  -14.480;  809.480
974.203;  115.706;  -13.530;  829.040
974.757;  117.174;  -12.060;  855.220
975.311;  115.113;  -13.240;  872.600
975.865;  113.224;  -12.550;  881.820
976.419;  110.821;  -13.180;  857.400
976.973;  111.302;  -14.100;  849.620
977.526;  110.486;  -13.330;  949.920
978.080;  106.399;  -15.390;  796.780
978.634;  107.667;  -11.670;  921.320
979.187;  104.057;  -10.640;  905.400
979.741;  102.880;  -13.330; 1018.380
980.294;   99.549;  -14.480;  789.160
980.848;   98.520;  -13.420;  717.220
981.401;   96.313;  -12.360;  816.540
981.955;   94.468;  -12.480;  844.300
982.508;   90.761;  -14.000;  746.340
983.061;   90.932;  -10.440;  915.260
983.615;   86.565;  -14.340;  798.800
984.168;   84.013;  -14.950;  770.080
984.721;   84.465;  -13.270;  880.760
985.274;   82.553;  -12.240;  867.500
985.827;   79.255;  -12.720;  834.220
986.380;   75.966;  -14.920;  721.340
986.933;   75.619;  -12.860;  864.800
987.486;   74.841;  -10.440;  861.920
988.039;   73.587;  -11.820;  863.100
988.591;   72.654;  -13.760;  893.260
989.144;   70.786;  -14.080;  737.260
989.697;   70.801;  -13.440;  758.740
990.250;   71.151;  -12.050;  858.100
990.802;   70.150;  -14.550;  755.860
991.355;   71.052;  -10.770;  974.880
991.907;   68.455;  -11.710;  864.320
992.460;   65.859;  -12.650;  753.760
993.012;   64.638;  -13.860;  749.540
993.565;   63.330;  -14.310;  711.360
994.117;   62.794;   -9.920;  950.780
994.669;   59.542;  -13.420;  701.320
995.221;   58.938;  -14.200;  791.920
995.774;   58.682;  -13.400;  787.580
996.326;   57.737;  -11.850;  740.220
996.878;   57.398;  -12.230;  838.420
997.430;   55.229;  -14.260;  699.860
997.982;   54.679;  -11.430;  750.140
998.534;   55.272;  -11.590;  739.060
999.086;   53.657;  -11.960;  738.220
999.638;   52.819;  -13.640;  661.380
1000.190;   52.768;  -13.660;  699.320
1000.741;   52.442;   -9.980;  742.700
1001.293;   51.488;  -11.860;  686.020
1001.845;   50.187;  -14.280;  676.640
1002.396;   50.258;  -12.270;  743.400
1002.948;   49.773;  -13.670;  737.400
1003.500;   48.826;  -12.010;  723.780
1004.051;   49.604;  -11.890;  907.580
1004.603;   48.344;  -11.220;  791.820
1005.154;   45.265;  -13.210;  608.980
1005.705;   43.663;  -11.850;  723.960
1006.257;   43.818;  -13.670;  707.220
1006.808;   43.269;  -12.060;  685.460
1007.359;   42.779;  -10.250;  763.240
1007.910;   41.177;  -13.440;  646.640
1008.461;   40.660;  -13.170;  732.940
1009.013;   38.975;  -14.590;  588.340
1009.564;   40.696;  -12.100;  793.520
1010.115;   38.165;  -14.000;  597.040
1010.665;   38.103;  -15.020;  602.160
1011.216;   38.893;  -12.560;  667.920
1011.767;   37.691;  -11.330;  697.920
1012.318;   38.657;  -11.450;  736.980
1012.869;   37.560;  -11.000;  679.000
1013.419;   36.826;  -11.760;  603.120
1013.970;   37.324;  -11.800;  666.640
1014.521;   35.923;  -14.750;  620.620
1015.071;   36.998;  -14.430;  670.380
1015.622;   36.640;  -14.170;  635.460
1016.172;   35.075;  -11.700;  596.820
1016.723;   34.418;  -13.230;  614.380
1017.273;   34.830;  -16.120;  604.160
1017.823;   34.618;  -13.360;  650.340
1018.374;   34.667;  -13.710;  611.760
1018.924;   34.429;  -11.050;  716.880
1019.474;   34.153;  -14.120;  718.880
1020.024;   33.184;  -12.990;  657.580
1020.574;   34.798;  -12.010;  726.160
1021.124;   34.559;  -12.080;  673.580
1021.674;   31.900;  -15.860;  559.120
1022.224;   34.154;  -11.710;  708.940
1022.774;   33.163;  -13.030;  668.820
1023.324;   34.300;  -11.000;  753.520
1023.874;   34.689;  -13.270;  875.760
1024.423;   32.267;  -14.570;  613.700
1024.973;   32.218;  -12.620;  610.760
1025.523;   30.958;  -12.630;  620.960
1026.072;   30.334;  -14.110;  606.420
1026.622;   30.042;  -15.390;  675.740
1027.172;   31.319;   -9.090;  715.660
1027.721;   29.997;  -12.250;  601.220
1028.270;   30.573;  -15.590;  663.400
1028.820;   29.865;  -13.840;  638.080
1029.369;   30.089;  -13.170;  612.700
1029.918;   29.730;  -14.080;  649.840
1030.468;   28.970;  -13.860;  564.780
1031.017;   30.864;  -12.970;  634.800
1031.566;   28.660;  -12.320;  608.900
1032.115;   29.898;  -13.140;  694.500
1032.664;   28.266;  -14.560;  596.480
1033.213;   29.575;  -11.620;  735.420
1033.762;   28.427;  -13.190;  635.620
1034.311;   28.817;  -13.460;  677.220
1034.860;   28.951;  -15.770;  691.000
1035.408;   28.927;  -13.100;  722.720
1035.957;   28.492;  -12.880;  719.540
1036.506;   25.421;  -13.640;  530.800
1037.055;   28.791;  -12.420;  844.320
1037.603;   27.816;  -13.740;  664.000
1038.152;   25.982;  -13.840;  534.760
1038.700;   26.237;  -10.770;  585.740
1039.249;   26.330;  -13.520;  681.220
1039.797;   26.976;  -13.060;  633.360
1040.345;   26.638;  -11.760;  705.420
1040.894;   25.831;  -10.790;  625.300
1041.442;   25.677;  -15.420;  632.200
1041.990;   24.870;  -14.550;  559.160
1042.538;   24.454;  -15.620;  536.180
1043.087;   24.246;  -14.940;  570.860
1043.635;   25.881;  -12.100;  670.500
1044.183;   24.863;  -13.200;  586.400
1044.731;   24.505;  -11.630;  576.000
1045.279;   24.420;  -14.200;  674.920
1045.827;   26.696;  -12.510;  892.400
1046.374;   23.456;  -14.960;  515.420
1046.922;   23.419;  -11.850;  590.580
1047.470;   24.233;  -13.770;  691.300
1048.018;   23.638;  -15.380;  647.960
1048.565;   24.751;  -14.010;  708.600
1049.113;   22.565;  -14.620;  557.000
1049.660;   22.607;  -14.940;  629.660
1050.208;   23.192;  -14.540;  675.640
1050.755;   22.741;  -13.710;  606.580
1051.303;   23.307;  -11.880;  686.820
1051.850;   22.255;  -12.160;  635.120
1052.397;   20.306;  -15.110;  473.960
1052.945;   21.208;  -14.770;  617.760
1053.492;   23.366;  -12.320;  741.840
1054.039;   22.793;  -13.290;  720.180
1054.586;   20.840;  -15.210;  557.240
1055.133;   22.584;  -12.920;  693.140
1055.680;   22.800;  -12.610;  646.620
1056.227;   20.408;  -12.620;  542.780
1056.774;   22.626;  -13.010;  794.980
1057.321;   20.550;  -16.180;  523.260
1057.868;   21.300;  -11.230;  651.320
1058.415;   20.702;  -10.890;  651.980
1058.961;   21.318;  -12.530;  678.940
1059.508;   20.428;  -14.120;  643.820
1060.055;   20.281;  -13.340;  581.780
1060.601;   20.433;  -12.920;  624.300
1061.148;   19.943;  -14.430;  616.820
1061.694;   19.792;  -14.140;  592.580
1062.241;   19.734;  -12.550;  596.320
1062.787;   20.023;  -13.370;  663.140
1063.334;   21.617;  -12.260;  808.560
1063.880;   19.738;  -10.800;  668.360
1064.426;   20.680;   -9.920;  706.820
1064.972;   18.992;  -12.970;  601.340
1065.518;   17.862;  -14.440;  566.640
1066.065;   18.874;  -12.680;  624.460
1066.611;   18.431;  -13.520;  598.800
1067.157;   18.621;  -11.100;  641.860
1067.703;   18.536;  -14.100;  668.480
1068.249;   18.277;  -13.750;  605.220
1068.794;   18.757;  -11.070;  626.880
1069.340;   16.857;  -13.210;  578.960
1069.886;   18.185;  -14.850;  590.700
1070.432;   17.029;  -14.580;  541.720
1070.977;   17.123;  -12.930;  601.080
1071.523;   17.485;  -11.970;  573.060
1072.068;   16.980;  -13.730;  582.000
1072.614;   16.460;  -14.550;  527.760
1073.160;   17.724;  -13.690;  687.040
1073.705;   15.664;  -14.780;  572.520
1074.250;   15.900;  -15.430;  559.900
1074.796;   17.051;  -11.620;  655.160
1075.341;   17.600;  -11.580;  664.100
1075.886;   16.851;  -13.190;  594.240
1076.431;   16.270;  -13.630;  649.880
1076.976;   16.070;  -11.670;  639.220
1077.521;   15.939;  -11.600;  583.080
1078.067;   15.145;  -13.920;  579.400
1078.612;   15.264;  -12.910;  661.620
1079.156;   15.646;  -15.340;  601.540
1079.701;   15.979;  -12.560;  693.260
1080.246;   16.199;  -12.490;  696.300
1080.791;   15.289;  -14.550;  625.020
1081.336;   15.912;  -15.210;  659.320
1081.880;   16.363;  -11.280;  649.680
1082.425;   14.271;  -12.830;  573.480
1082.970;   16.561;  -11.680;  717.040
1083.514;   14.091;  -15.500;  597.000
1084.059;   13.778;  -11.770;  586.720
1084.603;   13.686;  -13.480;  565.840
1085.147;   14.348;  -13.940;  645.220
1085.692;   15.217;  -13.170;  716.800
1086.236;   12.863;  -15.740;  503.140
1086.780;   14.478;  -10.750;  751.440
1087.325;   13.785;  -14.900;  654.620
1087.869;   14.388;  -15.160;  610.700
1088.413;   14.276;  -11.030;  705.040
1088.957;   12.183;  -15.210;  543.400
1089.501;   14.743;  -12.310;  766.640
1090.045;   14.536;  -12.790;  726.480
1090.589;   11.759;  -14.040;  569.920
1091.133;   12.664;  -12.800;  673.340
1091.676;   12.993;  -13.600;  591.940
1092.220;   11.856;  -12.960;  600.920
1092.764;   13.898;  -10.830;  706.960
1093.307;   12.636;  -12.390;  673.780
1093.851;   11.129;  -15.850;  556.540
1094.395;   12.753;  -12.980;  683.140
1094.938;   11.796;  -13.670;  632.520
1095.482;   11.575;  -12.740;  559.800
1096.025;   13.302;  -13.340;  710.880
1096.568;   12.748;  -10.500;  779.280
1097.112;    9.590;  -13.500;  508.180
1097.655;   11.834;  -13.060;  603.000
1098.198;    9.734;  -13.240;  600.180
1098.741;   11.105;  -15.490;  612.860
1099.285;   11.467;  -13.410;  657.300
1099.828;    9.402;  -15.640;  439.400
1100.371;   10.815;  -13.980;  608.160
1100.914;   11.729;  -13.990;  682.660
1101.457;   11.744;  -15.030;  679.900
1101.999;   10.135;  -12.480;  584.680
1102.542;   10.703;  -12.410;  641.440
1103.085;   10.244;  -14.730;  658.500
1103.628;   11.652;  -12.190;  762.060
1104.170;    9.280;  -12.360;  588.280
1104.713;   10.595;  -13.350;  646.700
1105.256;    9.734;  -14.930;  557.440
1105.798;    8.326;  -15.150;  499.980
1106.341;   10.858;  -13.230;  728.900
1106.883;    8.755;  -14.680;  521.340
1107.425;    9.769;  -14.810;  668.180
1107.968;    9.684;  -12.940;  612.380
1108.510;   10.155;  -10.550;  684.960
1109.052;    8.152;  -15.640;  612.620
1109.594;    8.831;  -14.440;  554.440
1110.136;    9.177;  -11.380;  643.220
1110.679;    8.672;  -13.090;  633.080
1111.221;    8.918;  -14.230;  604.460
1111.763;    7.857;  -14.260;  559.220
1112.304;    7.415;  -14.510;  547.140
1112.846;    8.777;  -14.700;  666.240
1113.388;   12.279;  -12.270;  942.180
1113.930;    8.565;  -13.340;  694.200
1114.472;    7.381;  -12.560;  606.540
1115.013;    6.319;  -14.280;  551.280
1115.555;    6.612;  -14.010;  587.100
1116.097;    6.344;  -14.730;  579.480
1116.638;    7.644;  -12.160;  684.600
1117.180;    7.481;  -14.320;  667.740
1117.721;    7.353;  -15.730;  568.580
1118.262;    8.464;  -13.480;  677.960
1118.804;    7.938;  -11.530;  637.340
1119.345;    6.922;  -13.540;  578.400
1119.886;    8.093;  -14.470;  704.040
1120.427;    6.623;  -13.030;  589.020
1120.969;    6.474;  -13.150;  597.920
1121.510;    5.870;  -13.940;  563.060
1122.051;    7.789;  -12.310;  723.580
1122.592;    5.995;  -13.870;  655.420
1123.133;    5.658;  -12.890;  547.940
1123.673;    6.477;  -13.300;  706.480
1124.214;    6.382;  -14.000;  612.460
1124.755;    7.064;  -13.210;  639.460
1125.296;    6.275;  -13.450;  627.320
1125.836;    7.319;  -12.610;  691.500
1126.377;    5.599;  -15.840;  599.660
1126.918;    6.943;  -11.830;  614.980
1127.458;    4.802;  -11.830;  622.220
1127.999;    6.326;  -11.490;  656.980
1128.539;    5.296;  -12.900;  694.240
1129.079;    5.108;  -14.910;  632.720
1129.620;    4.674;  -12.920;  558.100
1130.160;    4.421;  -14.640;  539.480
1130.700;    4.602;  -13.270;  640.840
1131.240;    5.868;  -14.110;  643.700
1131.781;    5.542;  -13.130;  619.680
1132.321;    4.908;  -15.220;  599.120
1132.861;    3.779;  -15.670;  564.200
1133.401;    4.034;  -13.970;  593.940
1133.941;    5.039;  -13.740;  626.280
1134.481;    4.078;  -13.200;  597.580
1135.020;    4.117;  -14.830;  609.160
1135.560;    4.559;  -14.590;  674.940
1136.100;    3.242;  -13.730;  501.160
1136.640;    3.021;  -15.240;  510.480
1137.179;    3.243;  -14.710;  537.960
1137.719;    3.592;  -14.090;  605.400
1138.258;    4.376;  -12.470;  587.360
1138.798;    4.245;  -12.580;  663.780
1139.337;    2.412;  -16.480;  482.840
1139.877;    3.878;  -13.970;  642.360
1140.416;    6.510;   -9.870;  878.060
1140.955;    2.525;  -14.860;  535.380
1141.494;    3.681;  -14.530;  669.280
1142.034;    2.444;  -13.940;  583.520
1142.573;    3.827;  -11.160;  646.280
1143.112;    2.361;  -15.050;  553.480
1143.651;    2.834;  -15.390;  536.480
1144.190;    3.295;  -12.990;  691.640
1144.729;    3.384;  -12.220;  607.420
1145.267;    4.065;  -14.020;  584.900
1145.806;    3.648;  -12.740;  637.040
1146.345;    3.258;  -14.810;  635.020
1146.884;    2.414;  -12.920;  622.500
1147.422;    1.827;  -13.930;  533.060
1147.961;    3.509;  -11.830;  708.460
1148.500;    3.365;  -12.710;  669.720
1149.038;    3.505;  -14.420;  632.500
1149.577;    3.023;  -13.920;  698.640
1150.115;    0.094;  -17.050;  452.280
1150.653;    2.037;  -14.890;  607.340
1151.192;    2.249;  -15.270;  552.920
1151.730;    2.207;  -13.160;  652.560
1152.268;    1.646;  -15.430;  589.520
1152.806;    0.982;  -15.880;  571.180
1153.344;    0.874;  -13.240;  577.640
1153.882;    1.571;  -13.010;  600.060
1154.421;   -0.051;  -16.180;  470.620
1154.958;    0.621;  -13.880;  595.240
1155.496;    2.635;  -13.590;  645.280
1156.034;    1.659;  -11.910;  721.880
1156.572;    2.124;  -12.010;  667.060
1157.110;    0.212;  -16.250;  473.940
1157.647;    2.388;  -15.230;  676.960
1158.185;    0.613;  -13.770;  564.320
1158.723;   -0.440;  -15.300;  509.200
1159.260;    2.054;  -13.130;  701.700
1159.798;    1.438;  -11.300;  658.160
1160.335;    0.654;  -13.210;  631.820

