
Integration time [ms]:   3.276
Averaging Nr. [scans]: 1000
Smoothing Nr. [pixels]: 0
Data measured with spectrometer [name]: 7414430SP
Wave   ;Sample   ;Dark     ;Reference
[nm]   ;[counts] ;[counts] ;[counts] 

288.544;  157.089;    7.793;  793.890
289.143;  161.279;    7.462;  681.602
289.742;  162.447;    8.602;  828.814
290.341;  148.811;    1.321;  789.841
290.940;  140.016;   -0.709;  730.702
291.538;  140.004;    0.881;  881.108
292.137;  137.853;    0.122;  792.581
292.736;  141.391;   -1.929;  975.101
293.335;  138.960;   -8.229;  735.086
293.934;  139.442;   -5.279;  781.677
294.532;  138.689;   -1.369; 1031.958
295.131;  125.381;   -7.641;  834.394
295.730;  124.904;   -8.420;  809.588
296.328;  122.906;   -5.611;  783.442
296.927;  122.348;   -5.781;  779.652
297.525;  122.894;   -6.361;  781.236
298.124;  114.004;  -11.382;  654.009
298.722;  117.879;   -7.641;  761.933
299.321;  115.934;   -6.811;  708.597
299.919;  113.622;   -6.991;  751.918
300.518;  110.318;  -10.362;  689.338
301.116;  111.553;   -9.581;  691.381
301.715;  111.415;   -4.891;  730.222
302.313;  111.157;   -8.801;  704.943
302.911;  106.572;   -8.522;  733.830
303.509;  111.190;   -6.171;  925.627
304.108;  108.507;   -7.311;  760.383
304.706;  107.072;   -8.321;  801.664
305.304;  102.255;  -10.222;  796.707
305.902;  107.030;   -6.021;  784.484
306.500;  102.805;   -4.971;  728.200
307.098;  101.472;   -7.061;  746.560
307.696;   99.114;   -8.801;  780.432
308.294;  100.214;   -6.411;  731.359
308.892;  101.658;   -2.901;  759.769
309.490;   97.613;   -5.041;  712.161
310.088;   95.754;   -5.002;  788.444
310.686;   99.396;   -2.041;  821.749
311.284;   95.751;   -2.351;  766.040
311.882;   93.183;   -4.422;  731.225
312.480;   90.103;   -4.192;  697.167
313.078;   92.424;   -1.172;  808.331
313.675;   91.940;   -2.601;  691.600
314.273;   87.038;   -1.312;  797.837
314.871;   87.150;   -3.942;  589.829
315.468;   85.636;   -2.802;  652.090
316.066;   87.537;   -0.701;  694.427
316.664;   79.217;   -4.362;  656.351
317.261;   84.357;   -2.872;  910.128
317.859;   79.889;   -2.022;  768.735
318.456;   80.887;   -0.531;  830.096
319.054;   75.779;   -3.912;  787.828
319.651;   74.597;   -4.752;  759.928
320.249;   73.691;   -2.602;  810.188
320.846;   71.475;   -0.821;  714.286
321.443;   68.274;   -4.642;  832.135
322.041;   65.292;   -5.002;  812.315
322.638;   63.424;   -3.982;  701.456
323.235;   64.588;   -3.411;  665.683
323.833;   61.551;   -7.361;  740.354
324.430;   56.702;   -8.611;  615.900
325.027;   57.331;   -4.061;  876.855
325.624;   57.354;   -4.031;  644.532
326.221;   53.398;   -7.481;  689.717
326.818;   53.974;   -5.281;  818.332
327.415;   56.168;   -7.460;  748.828
328.012;   55.489;   -5.510;  690.585
328.609;   53.682;   -7.880;  731.389
329.206;   51.773;   -8.331;  778.621
329.803;   51.559;   -5.121;  737.841
330.400;   54.605;   -4.510;  704.260
330.997;   56.963;   -6.441;  817.147
331.594;   54.989;   -8.831;  788.185
332.191;   59.690;   -7.621;  728.722
332.787;   62.988;   -4.591;  844.463
333.384;   62.772;   -7.412;  763.093
333.981;   62.706;   -8.293;  815.687
334.578;   64.715;   -7.052;  708.378
335.174;   66.268;   -3.102;  731.469
335.771;   66.409;   -5.943;  836.456
336.367;   64.374;   -7.393;  710.631
336.964;   67.367;   -4.063;  793.266
337.561;   66.061;   -3.813;  731.112
338.157;   60.762;   -4.654;  911.916
338.754;   60.073;   -7.934;  796.589
339.350;   57.759;   -4.414;  722.493
339.946;   58.405;   -4.664;  773.135
340.543;   51.473;   -6.375;  846.136
341.139;   45.528;   -9.815;  720.836
341.735;   42.672;   -4.526;  772.593
342.332;   41.230;   -4.895;  691.472
342.928;   41.373;   -4.295;  795.394
343.524;   35.565;   -5.476;  761.684
344.120;   30.642;   -5.856;  738.562
344.716;   34.797;   -2.155;  723.717
345.313;   31.846;   -6.275;  795.342
345.909;   26.515;   -8.815;  627.336
346.505;   28.584;   -5.305;  740.247
347.101;   29.346;   -2.674;  827.864
347.697;   28.426;   -4.344;  785.398
348.293;   23.828;   -9.975;  627.244
348.889;   24.771;   -5.774;  745.914
349.485;   23.776;   -5.004;  688.205
350.081;   24.148;   -4.704;  772.592
350.676;   19.526;   -6.635;  691.606
351.272;   23.898;   -4.504;  809.530
351.868;   23.533;   -3.914;  780.497
352.464;   21.086;   -9.044;  723.932
353.059;   17.116;   -8.314;  646.017
353.655;   20.527;   -7.024;  777.063
354.251;   21.082;   -5.343;  759.845
354.846;   16.208;   -8.604;  740.646
355.442;   13.754;   -6.945;  753.071
356.038;   15.027;   -7.564;  751.708
356.633;   14.837;   -5.814;  728.594
357.229;   13.532;   -7.364;  724.757
357.824;   12.130;   -8.024;  703.600
358.420;   11.213;   -9.384;  679.726
359.015;   10.960;   -5.104;  695.357
359.610;   12.621;   -6.854;  763.920
360.206;    6.510;  -10.185;  603.240
360.801;    8.815;   -7.054;  646.503
361.396;   11.079;   -5.034;  725.975
361.992;    5.915;   -8.284;  668.220
362.587;    3.816;   -8.625;  670.160
363.182;    6.302;   -7.674;  689.631
363.777;    7.097;   -5.164;  738.242
364.372;    5.793;   -8.604;  737.314
364.967;    2.260;   -9.055;  680.744
365.563;    7.316;   -6.114;  815.567
366.158;    3.558;   -5.814;  685.161
366.753;    4.477;   -7.854;  649.263
367.348;    1.983;   -7.804;  746.056
367.942;    2.582;   -7.954;  697.298
368.537;    1.489;   -4.984;  754.245
369.132;    1.407;   -8.564;  703.428
369.727;   -2.091;   -8.855;  638.079
370.322;   -0.725;   -6.245;  580.186
370.917;   -2.346;   -6.425;  710.646
371.511;    0.668;   -6.294;  861.834
372.106;   -2.688;   -7.685;  776.964
372.701;   -5.557;   -7.335;  585.988
373.296;   -0.409;   -4.564;  863.135
373.890;   -4.501;  -10.235;  647.840
374.485;   -7.059;   -7.885;  691.199
375.079;   -2.529;   -7.324;  738.685
375.674;   -1.906;   -3.494;  812.970
376.268;   -6.589;   -8.525;  691.759
376.863;  -11.938;  -10.086;  580.327
377.457;   -5.319;   -7.025;  662.490
378.052;   -7.115;   -3.585;  764.884
378.646;   -8.924;   -7.595;  741.167
379.240;   -8.812;   -8.335;  721.176
379.835;   -7.660;   -5.785;  636.978
380.429;   -9.457;   -4.335;  562.557
381.023;  -10.127;   -6.805;  779.205
381.617;  -12.144;   -9.195;  680.106
382.212;   -9.192;   -6.905;  685.303
382.806;   -9.033;   -3.745;  760.690
383.400;  -12.403;   -7.745;  672.281
383.994;  -12.805;   -9.765;  664.870
384.588;  -10.038;   -6.564;  697.701
385.182;   -7.853;   -5.344;  726.624
385.776;  -10.024;   -8.514;  706.875
386.370;  -13.307;   -9.555;  681.968
386.964;  -12.021;   -8.715;  684.155
387.558;  -10.040;   -6.174;  598.360
388.152;  -13.866;   -8.725;  681.959
388.745;  -11.590;   -7.965;  814.707
389.339;  -10.073;   -5.924;  747.642
389.933;  -10.361;   -5.524;  695.370
390.527;  -10.519;   -7.114;  859.029
391.120;  -16.885;  -10.725;  595.318
391.714;  -13.816;   -8.035;  711.633
392.308;  -10.877;   -3.574;  780.253
392.901;  -14.470;   -7.245;  642.460
393.495;  -16.172;   -9.285;  595.414
394.089;  -13.889;   -5.895;  760.452
394.682;  -14.441;   -4.295;  697.188
395.275;  -14.877;   -9.875;  719.927
395.869;  -16.341;   -8.485;  667.314
396.462;  -14.946;   -7.455;  616.609
397.056;  -10.751;   -5.424;  776.621
397.649;  -15.729;   -6.605;  731.575
398.242;  -13.571;   -8.224;  712.645
398.836;  -12.712;   -7.474;  766.408
399.429;  -14.397;   -7.094;  631.041
400.022;  -17.144;   -9.475;  665.902
400.615;  -14.204;   -7.145;  805.609
401.208;  -12.242;   -7.174;  691.451
401.802;  -14.788;   -5.515;  699.329
402.395;  -16.760;   -9.875;  683.502
402.988;  -16.760;   -8.845;  696.627
403.581;  -13.762;   -8.874;  646.878
404.174;  -11.410;   -5.324;  686.568
404.767;  -15.176;   -9.575;  638.583
405.360;  -16.762;  -10.965;  621.445
405.953;  -11.578;   -8.764;  759.034
406.545;  -11.347;   -7.514;  725.342
407.138;  -15.599;  -10.025;  618.350
407.731;  -14.255;  -10.034;  613.303
408.324;  -10.542;   -9.374;  660.554
408.917;  -11.846;   -6.534;  681.864
409.509;  -13.894;   -8.004;  740.396
410.102;  -15.297;   -9.875;  643.948
410.695;   -9.478;   -8.604;  665.758
411.287;   -9.462;   -6.794;  599.821
411.880;  -11.353;   -9.334;  585.421
412.472;  -14.638;  -10.254;  613.092
413.065;  -11.566;   -6.714;  629.408
413.657;   -9.335;   -7.234;  576.678
414.250;  -10.053;  -10.544;  646.681
414.842;  -11.520;   -9.744;  676.353
415.434;   -8.873;   -6.994;  570.463
416.027;   -5.185;   -5.893;  652.196
416.619;   -8.206;   -7.264;  713.400
417.211;   -7.924;  -10.374;  599.352
417.804;   -4.315;   -7.993;  628.499
418.396;   -8.134;   -7.234;  607.643
418.988;   -6.424;   -9.443;  659.238
419.580;   -9.230;  -10.724;  568.276
420.172;   -7.179;  -10.323;  536.196
420.764;   -2.831;   -8.793;  672.482
421.356;   -4.226;  -11.143;  636.898
421.948;   -5.509;   -8.293;  677.661
422.540;    0.247;   -7.893;  680.027
423.132;   -0.264;   -7.082;  600.641
423.724;   -4.435;   -8.653;  561.267
424.316;   -1.402;  -10.213;  621.345
424.908;    1.342;   -9.762;  591.517
425.500;    1.727;   -5.572;  647.978
426.092;    3.518;   -8.422;  648.268
426.683;    1.593;   -9.283;  684.836
427.275;    4.025;   -7.852;  641.471
427.867;    6.088;   -5.272;  668.948
428.458;    6.997;   -7.682;  732.344
429.050;    4.407;  -10.612;  680.749
429.642;    6.744;   -9.882;  743.124
430.233;    7.445;   -6.962;  569.356
430.825;    8.068;   -6.842;  724.809
431.416;    6.625;   -9.672;  698.241
432.008;    9.510;   -6.552;  651.723
432.599;   10.469;   -6.891;  656.073
433.190;    6.999;  -10.912;  637.670
433.782;    6.935;  -11.172;  590.395
434.373;   14.508;   -6.061;  884.765
434.964;   12.581;   -8.251;  602.920
435.556;    9.904;   -9.722;  634.537
436.147;   13.134;   -9.082;  758.490
436.738;   13.114;   -8.041;  701.099
437.329;   18.511;   -7.341;  721.723
437.920;   10.914;   -8.162;  666.688
438.511;   10.970;  -11.802;  564.526
439.103;   17.973;  -10.191;  623.998
439.694;   19.927;   -7.601;  681.583
440.285;   20.236;   -8.541;  764.432
440.876;   18.218;   -9.751;  845.738
441.466;   18.195;   -9.401;  575.162
442.057;   23.244;   -7.760;  665.814
442.648;   21.785;   -9.971;  746.255
443.239;   20.761;  -11.001;  620.477
443.830;   25.187;   -7.990;  704.958
444.421;   26.785;   -7.910;  655.474
445.011;   23.408;   -8.131;  693.619
445.602;   22.994;   -7.111;  743.126
446.193;   25.551;  -10.920;  488.117
446.783;   29.326;   -6.500;  640.397
447.374;   24.784;   -8.671;  692.759
447.964;   25.550;  -10.781;  713.770
448.555;   34.039;   -9.650;  822.742
449.145;   30.289;   -8.660;  662.853
449.736;   31.313;   -8.990;  803.179
450.326;   30.946;   -9.500;  713.626
450.917;   36.059;   -8.680;  675.324
451.507;   34.641;   -7.520;  600.661
452.097;   34.895;   -8.590;  746.267
452.688;   36.768;  -11.340;  742.160
453.278;   36.321;  -10.100;  566.840
453.868;   41.130;   -6.019;  793.550
454.458;   37.934;   -9.440;  651.141
455.048;   39.508;  -10.560;  711.783
455.639;   40.503;  -11.799;  567.096
456.229;   44.104;   -6.899;  710.694
456.819;   45.331;   -7.389;  751.158
457.409;   46.256;  -11.119;  773.993
457.999;   49.046;   -9.289;  737.505
458.589;   48.653;   -6.139;  686.606
459.179;   48.772;   -8.729;  717.658
459.769;   47.458;   -9.789;  627.099
460.358;   51.738;  -10.259;  797.262
460.948;   51.921;   -7.299;  689.503
461.538;   52.200;  -10.289;  660.677
462.128;   50.583;  -11.269;  664.934
462.717;   57.451;   -9.368;  710.326
463.307;   60.188;   -7.908;  705.846
463.897;   56.098;   -9.599;  656.942
464.486;   56.228;   -9.769;  837.128
465.076;   60.143;   -8.048;  733.776
465.666;   63.461;   -9.358;  652.900
466.255;   61.045;   -7.919;  785.651
466.845;   60.731;  -11.689;  666.749
467.434;   63.808;   -7.818;  725.873
468.023;   64.945;   -7.678;  658.357
468.613;   61.441;  -10.939;  713.946
469.202;   66.478;  -10.118;  646.507
469.791;   70.392;   -9.108;  737.811
470.381;   72.585;   -6.058;  742.813
470.970;   71.810;  -10.428;  711.099
471.559;   71.755;  -10.268;  733.291
472.148;   74.787;   -8.448;  675.737
472.738;   77.321;   -6.917;  765.466
473.327;   76.907;  -11.978;  637.529
473.916;   76.116;  -11.888;  737.446
474.505;   81.123;   -9.437;  751.703
475.094;   83.270;   -6.747;  806.570
475.683;   81.669;   -9.367;  797.699
476.272;   84.305;  -12.637;  730.632
476.861;   86.471;  -10.027;  706.754
477.449;   93.245;   -8.716;  728.487
478.038;   87.356;   -9.577;  692.513
478.627;   89.091;   -9.718;  714.852
479.216;   95.003;   -8.947;  769.441
479.805;   98.385;   -6.256;  783.375
480.393;   98.074;   -7.937; 1008.945
480.982;   97.446;   -7.717;  874.501
481.571;  103.472;   -9.266;  858.333
482.159;  104.600;   -7.636;  705.386
482.748;  103.734;   -9.667;  821.385
483.336;  109.069;  -10.376;  858.209
483.925;  108.551;   -7.147;  774.373
484.513;  115.667;   -7.996;  758.962
485.102;  112.643;  -10.027;  810.965
485.690;  121.206;  -10.446; 1011.050
486.278;  122.300;   -8.446;  979.329
486.867;  123.498;   -6.356;  809.662
487.455;  125.091;   -9.136;  898.229
488.043;  127.278;  -10.646;  748.361
488.631;  136.321;   -7.456; 1005.079
489.220;  139.959;   -6.636;  908.626
489.808;  139.793;  -11.036;  741.415
490.396;  147.547;  -10.246;  914.645
490.984;  153.941;   -8.556;  830.161
491.572;  165.356;   -5.886;  940.315
492.160;  172.308;   -9.486;  919.081
492.748;  181.569;  -10.976;  884.341
493.336;  203.670;   -8.776; 1019.693
493.924;  232.058;   -5.465;  958.077
494.512;  267.910;   -9.986; 1066.638
495.100;  308.317;  -10.636; 1103.280
495.687;  372.584;  -10.885; 1206.373
496.275;  451.705;   -8.126; 1150.796
496.863;  529.961;  -10.586; 1281.171
497.451;  636.773;  -11.926; 1386.805
498.038;  739.700;  -10.885; 1556.729
498.626;  860.925;   -6.315; 1741.407
499.214; 1063.291;   -7.326; 2016.609
499.801; 1293.664;  -11.906; 2220.633
500.389; 1592.548;  -10.466; 2312.494
500.976; 1864.855;   -5.236; 2744.849
501.564; 2326.738;   -8.936; 3148.565
502.151; 2956.483;  -13.176; 3515.999
502.738; 3335.624;  -10.646; 3971.274
503.326; 3714.418;   -9.525; 4403.796
503.913; 4144.315;  -10.856; 5161.749
504.500; 4620.718;  -11.586; 5986.420
505.088; 5186.563;  -10.336; 6381.201
505.675; 6025.347;   -6.355; 6925.547
506.262; 6558.999;   -9.046; 7619.060
506.849; 6935.864;  -10.416; 8733.969
507.436; 7376.133;  -10.305; 9790.121
508.023; 7741.824;   -5.496; 9985.472
508.610; 7854.019;   -7.856;10434.618
509.197; 8812.353;  -10.097;11198.435
509.784;10109.600;  -10.886;12391.194
510.371;11523.307;   -9.315;13603.713
510.958;12577.516;   -9.936;14426.586
511.545;13087.731;   -9.326;15243.775
512.132;13314.837;  -10.075;15945.876
512.719;13851.316;   -7.796;16340.369
513.305;15108.736;  -10.606;18011.766
513.892;16610.551;  -11.486;19754.971
514.479;17851.764;   -9.126;20967.805
515.066;19276.510;   -6.026;22299.793
515.652;19448.813;   -8.466;22908.660
516.239;19885.588;  -10.886;23798.875
516.825;21273.326;  -11.496;25567.275
517.412;22848.238;   -5.796;28154.959
517.998;24087.328;  -10.506;28344.111
518.585;24995.406;  -10.076;27134.219
519.171;24573.799;   -8.315;27268.576
519.758;25135.555;   -8.596;28964.129
520.344;27609.615;   -8.466;30664.494
520.930;26745.844;  -11.006;32550.605
521.516;25241.402;  -10.495;35422.895
522.103;27039.420;   -5.526;38280.004
522.689;29421.139;   -8.746;37835.117
523.275;30533.135;  -11.376;37288.613
523.861;32497.881;  -11.156;37281.395
524.447;32022.174;   -8.135;37846.949
525.033;32386.629;   -7.896;38321.949
525.619;33298.871;  -12.476;38579.285
526.205;33426.641;   -9.516;40622.875
526.791;32965.855;   -6.926;42258.836
527.377;32855.922;   -8.346;42966.902
527.963;34675.457;   -8.717;42018.949
528.549;36170.371;  -11.016;42476.828
529.135;34660.020;   -8.536;41854.852
529.721;34557.715;   -9.666;41237.711
530.306;33715.227;  -10.066;41259.445
530.892;34834.363;  -11.356;41506.047
531.478;36812.129;   -6.596;43559.613
532.063;38897.340;   -8.836;47695.563
532.649;37219.645;  -10.047;50808.324
533.235;37221.887;   -9.746;51787.500
533.820;39509.512;   -6.566;52145.035
534.406;41098.883;  -10.817;51133.488
534.991;43038.270;   -9.416;49996.805
535.576;41763.586;   -9.036;48882.852
536.162;39136.492;   -6.156;46942.285
536.747;39517.918;  -11.607;45711.746
537.333;42372.387;  -11.787;48510.180
537.918;43420.609;  -12.437;50439.891
538.503;42821.371;   -7.196;50863.711
539.088;43461.430;  -10.556;50906.922
539.673;44492.266;   -8.767;52621.965
540.259;41341.609;  -10.026;52368.094
540.844;40683.547;   -7.416;50879.109
541.429;40284.664;   -9.467;52077.777
542.014;39868.238;   -9.527;52716.695
542.599;43050.160;   -9.946;52363.281
543.184;44330.121;   -7.927;53187.137
543.769;44525.348;   -9.297;54697.605
544.354;44843.711;  -10.127;53913.914
544.938;42739.766;   -9.267;49680.164
545.523;40924.875;   -6.506;47386.277
546.108;42823.137;   -9.787;49151.949
546.693;43848.121;  -11.587;51384.637
547.278;44021.750;  -10.986;51853.254
547.862;44309.992;   -8.206;51173.750
548.447;42753.762;  -10.067;51691.395
549.031;42685.805;   -9.637;52456.703
549.616;43173.066;   -9.926;52714.516
550.201;42221.270;   -6.347;52414.598
550.785;43352.008;   -7.917;52355.059
551.370;44375.094;  -10.867;54589.453
551.954;46416.445;   -9.047;58267.348
552.538;45673.789;   -7.827;59062.176
553.123;43655.895;  -10.287;58115.285
553.707;42888.973;  -12.178;56556.285
554.291;40373.676;   -8.717;56201.668
554.876;41700.555;   -7.457;55335.762
555.460;43925.992;  -10.387;54155.703
556.044;45273.707;   -9.618;53721.484
556.628;45942.262;  -11.567;53731.016
557.212;46580.711;   -8.097;54312.531
557.796;47981.945;  -11.077;53797.773
558.380;46055.664;  -11.108;56145.984
558.964;44374.461;   -9.057;57277.930
559.548;42151.789;   -6.977;56459.641
560.132;38908.426;  -11.457;54434.543
560.716;40299.020;  -11.378;54800.617
561.300;42456.906;   -9.577;57606.945
561.884;41198.898;   -7.127;58972.445
562.467;39785.930;   -7.118;57327.570
563.051;38422.281;  -13.358;54962.434
563.635;36554.738;  -10.178;52594.473
564.219;38337.625;   -7.837;50610.410
564.802;41622.066;  -11.398;49551.180
565.386;41940.563;  -12.788;48370.953
565.969;43062.785;   -9.077;48178.871
566.553;42193.145;   -6.207;49957.305
567.136;40662.094;   -8.568;50369.594
567.720;41830.586;  -11.868;49492.004
568.303;42863.684;   -8.268;50616.352
568.887;41906.121;   -8.698;50727.148
569.470;39605.469;   -6.808;51698.379
570.053;37406.277;  -13.188;52122.078
570.637;35227.445;  -12.037;52536.438
571.220;35323.434;   -8.577;51186.098
571.803;35324.395;   -8.498;51032.762
572.386;37321.832;  -10.498;49609.887
572.969;37987.977;   -9.388;48285.926
573.552;37966.375;   -8.338;47624.285
574.135;36633.016;   -8.518;45498.641
574.718;33043.629;  -13.628;41970.434
575.301;33385.797;  -10.893;41447.137
575.884;33727.965;   -8.158;40923.836
576.467;38561.824;  -10.328;45267.723
577.050;39235.121;  -13.058;48175.543
577.633;38110.586;   -9.458;47729.328
578.216;34821.000;   -8.928;47579.793
578.799;32620.945;   -9.358;47820.996
579.381;34103.172;  -11.388;48115.551
579.964;34369.977;  -11.718;47333.766
580.547;33261.191;   -8.588;46668.969
581.129;34047.957;   -8.859;44466.141
581.712;35794.242;  -10.729;44164.922
582.294;35374.570;  -11.118;46477.855
582.877;36164.563;   -5.218;48244.254
583.459;36397.559;   -8.679;47437.895
584.042;37506.672;  -10.709;46943.219
584.624;35486.313;  -11.669;46792.227
585.206;34194.195;   -8.218;46557.250
585.789;35016.496;  -10.569;45793.773
586.371;35495.766;  -11.859;43836.391
586.953;36472.363;  -10.719;42972.492
587.536;37789.957;   -7.198;42487.211
588.118;36630.715;   -8.720;42086.414
588.700;35341.918;  -10.439;43389.930
589.282;32802.230;   -9.198;43646.039
589.864;30616.480;   -9.199;43438.109
590.446;30306.313;  -11.319;43151.926
591.028;29414.262;  -11.159;42781.867
591.610;28622.232;  -11.779;42839.098
592.192;28290.518;   -7.668;42820.402
592.774;26516.615;  -11.949;40724.277
593.356;25537.674;  -12.129;39874.789
593.937;27586.262;  -10.669;39980.648
594.519;31561.051;   -6.509;42069.633
595.101;32319.582;  -10.849;42976.031
595.683;31259.850;  -11.679;44084.441
596.264;30514.023;   -9.049;43478.797
596.846;30304.939;   -8.849;43803.672
597.427;30257.992;   -9.570;42986.934
598.009;31948.908;  -12.620;42832.219
598.591;31903.162;  -10.039;42580.086
599.172;34035.250;  -10.369;43061.805
599.753;36332.320;   -9.140;41691.469
600.335;35746.863;  -11.430;40692.520
600.916;33186.246;   -9.939;39982.422
601.498;30030.781;   -8.479;40318.617
602.079;29483.119;  -10.920;40670.609
602.660;29114.600;  -11.480;41450.898
603.241;29955.719;  -11.699;41137.738
603.823;30245.596;   -9.579;38868.797
604.404;29941.262;  -10.620;38182.785
604.985;32873.078;  -10.450;38078.047
605.566;33620.438;   -9.129;38056.633
606.147;34578.203;   -7.510;37020.418
606.728;33469.703;  -10.660;37883.359
607.309;31665.791;  -11.740;38748.273
607.890;31199.293;   -9.759;38850.230
608.471;29870.455;   -8.250;37457.918
609.051;30076.418;   -9.240;36066.457
609.632;29943.996;  -12.120;35991.074
610.213;29510.871;   -9.110;37402.641
610.794;30726.939;   -8.030;38383.363
611.374;29635.891;   -8.110;40562.387
611.955;29481.770;  -13.560;38533.727
612.536;30564.652;  -11.400;36951.789
613.116;30064.271;   -8.070;37197.891
613.697;30826.990;  -10.830;38411.125
614.277;30548.328;  -11.641;38673.938
614.858;29871.914;  -13.310;37075.863
615.438;29935.322;   -7.460;35092.906
616.019;28063.633;   -7.601;33666.301
616.599;28719.797;  -12.020;34189.023
617.179;28617.430;  -11.780;36952.047
617.760;27499.430;   -8.570;39582.574
618.340;28006.637;  -11.471;38943.977
618.920;28535.254;  -11.170;37594.156
619.500;29496.791;  -11.071;37866.938
620.080;30040.467;   -7.750;37869.043
620.660;30242.713;  -12.711;36868.617
621.241;30882.795;  -10.211;36352.309
621.821;30415.744;  -10.961;35459.520
622.401;30533.510;   -7.720;35207.414
622.980;32451.277;   -8.981;35980.422
623.560;31242.938;   -9.331;37351.328
624.140;26955.359;   -9.850;34388.582
624.720;23114.150;   -7.451;32368.764
625.300;22892.773;   -9.070;32638.629
625.880;26952.309;  -12.601;34599.035
626.459;30097.514;  -11.751;36831.738
627.039;30199.635;   -9.281;38299.098
627.619;29286.865;   -8.801;38289.574
628.198;29329.502;  -12.071;37220.695
628.778;30095.035;   -9.461;37632.563
629.357;30836.766;   -8.491;38003.012
629.937;30614.816;   -9.721;38402.039
630.516;31463.039;   -9.951;37868.801
631.096;32693.422;  -11.731;35760.410
631.675;34990.543;   -8.572;35225.219
632.254;34770.453;  -11.282;35130.289
632.834;33425.188;  -13.322;35794.570
633.413;34081.938;  -10.301;35788.922
633.992;34101.078;   -8.582;34532.863
634.571;34840.805;   -8.352;33590.113
635.151;34160.859;  -11.912;34943.863
635.730;31945.133;  -10.511;35352.523
636.309;31765.131;   -7.731;35366.605
636.888;31305.936;   -9.952;36165.637
637.467;30623.465;  -11.672;37515.902
638.046;29152.410;   -8.901;39288.695
638.625;28432.682;   -7.912;38279.699
639.204;27742.926;  -10.022;37741.598
639.782;29002.666;  -12.252;38364.551
640.361;31064.371;  -10.041;36740.621
640.940;30813.555;  -11.161;34950.082
641.519;30403.096;   -9.701;34137.398
642.097;31553.570;  -11.271;35654.258
642.676;31566.867;   -8.651;35637.957
643.255;30545.891;   -8.711;36567.074
643.833;30202.092;   -9.581;37809.434
644.412;31138.100;  -13.711;37337.293
644.990;32483.813;  -11.811;37018.531
645.569;35139.805;   -9.411;36518.469
646.147;35678.492;  -10.291;36186.430
646.726;33715.641;  -12.401;36267.688
647.304;32229.887;  -10.411;36647.625
647.882;32774.320;   -9.651;39286.742
648.461;32481.598;   -9.631;39157.703
649.039;30271.893;  -11.881;35412.883
649.617;30167.197;   -9.661;34744.918
650.195;30619.061;   -9.301;35403.098
650.773;29975.045;  -10.511;35053.797
651.352;29906.736;  -11.521;33756.816
651.930;28742.059;  -12.211;31868.773
652.508;27741.945;   -9.171;33121.551
653.086;29010.730;   -9.371;33564.793
653.663;31241.758;  -13.161;34054.668
654.241;30188.967;  -13.031;35693.309
654.819;28321.861;   -9.371;36422.906
655.397;29020.615;  -10.511;38213.484
655.975;29205.469;  -10.371;39507.625
656.553;30102.336;  -10.051;39498.223
657.130;30839.713;  -10.061;40395.480
657.708;27804.383;   -9.561;39242.020
658.286;24976.482;  -11.511;38920.020
658.863;25389.436;  -10.261;40202.898
659.441;28289.773;   -7.531;39677.938
660.018;30850.014;   -9.501;40413.355
660.596;31544.969;  -13.301;39931.414
661.173;34215.879;  -11.211;39604.531
661.750;33213.754;   -9.951;39700.070
662.328;30572.768;   -9.390;39292.809
662.905;29221.418;  -11.330;38235.648
663.482;26436.563;   -9.050;36212.305
664.060;24264.217;   -8.240;35944.945
664.637;28273.551;  -10.050;35170.785
665.214;32928.590;  -11.760;34197.523
665.791;31810.365;  -10.530;34549.520
666.368;31378.016;   -9.690;35118.578
666.945;31779.961;   -9.320;36019.418
667.522;32707.576;  -11.860;36048.438
668.099;31996.436;  -10.770;36243.914
668.676;32116.158;   -6.260;35958.875
669.253;34183.777;   -7.000;37384.730
669.830;34588.906;  -10.190;36779.629
670.407;33393.539;   -9.550;35231.289
670.984;32703.600;   -9.260;35544.270
671.560;31003.791;   -9.280;35466.867
672.137;29288.740;  -11.810;34280.863
672.714;29390.682;  -11.490;34632.863
673.290;30308.549;   -7.740;35135.422
673.867;30821.928;  -10.660;36114.480
674.443;30175.787;  -12.230;36152.859
675.020;28683.736;  -10.450;35327.238
675.596;27260.887;   -9.260;35795.176
676.173;28043.674;  -10.780;35430.355
676.749;28705.441;  -13.690;33549.516
677.326;29854.053;  -11.980;32210.012
677.902;27978.045;   -8.630;32068.871
678.478;26016.744;  -10.730;32583.891
679.054;27773.313;  -10.520;32088.928
679.631;29267.047;  -11.920;30978.848
680.207;30522.484;   -7.490;33160.887
680.783;31662.553;   -9.860;35570.363
681.359;32151.686;  -13.380;36125.184
681.935;30920.441;  -12.480;35240.922
682.511;31581.822;   -7.900;34429.961
683.087;32260.250;   -7.710;34463.680
683.663;33018.441;  -11.480;34648.898
684.239;32507.613;  -14.090;34546.457
684.815;33253.945;   -7.560;35586.375
685.390;33240.539;   -9.910;35821.895
685.966;32837.156;  -11.159;35085.871
686.542;33456.559;  -11.169;34198.230
687.118;32045.076;   -5.959;32847.707
687.693;32171.945;  -10.329;32794.027
688.269;31423.303;  -12.059;33072.367
688.844;32179.670;  -10.909;33141.664
689.420;33620.988;   -8.019;33965.742
689.995;30453.176;   -8.399;34655.523
690.571;29392.885;  -10.949;33576.742
691.146;28602.420;   -9.619;32657.219
691.722;26581.873;   -8.999;32526.979
692.297;25817.104;  -11.589;33014.617
692.872;26738.598;  -11.739;34012.254
693.448;26955.934;  -11.059;34237.434
694.023;28639.428;  -10.139;34142.672
694.598;30691.438;   -9.029;34132.031
695.173;30323.916;  -13.319;34205.250
695.748;27784.559;  -10.169;32882.488
696.323;25488.746;   -8.339;32864.906
696.898;25151.227;   -8.169;33170.004
697.473;28368.006;  -12.309;32432.984
698.048;28429.760;  -10.989;31649.303
698.623;27422.023;   -9.329;30778.141
699.198;28916.131;   -9.849;31140.119
699.773;30230.619;  -12.329;31764.299
700.348;30138.328;  -10.389;31780.816
700.922;28409.746;   -9.269;32046.375
701.497;26650.736;   -9.329;32603.574
702.072;28286.061;  -10.789;34799.871
702.646;28213.400;  -10.839;35793.172
703.221;28725.025;   -9.099;35201.590
703.795;29161.574;  -10.939;34764.527
704.370;27704.871;  -12.859;34307.367
704.944;29056.656;  -11.559;33509.887
705.519;30186.107;   -7.939;31388.584
706.093;32080.629;  -10.499;31340.104
706.668;33078.199;  -11.289;32630.281
707.242;32100.709;  -11.509;32728.779
707.816;30649.389;   -9.639;32947.238
708.390;30208.521;  -11.429;33277.855
708.965;31212.498;  -11.869;33834.336
709.539;31300.525;  -11.689;33709.273
710.113;30784.867;  -10.478;33044.313
710.687;28051.633;  -10.228;31953.992
711.261;27231.096;  -13.698;30505.949
711.835;26983.270;  -13.378;30262.369
712.409;26719.625;   -9.698;31254.447
712.983;26362.152;  -11.898;32754.986
713.557;25307.625;  -15.138;34018.824
714.131;26641.229;  -14.098;34579.625
714.704;26672.551;   -9.958;33890.262
715.278;25906.516;  -10.028;33531.102
715.852;24970.877;  -11.148;33601.660
716.425;24433.896;   -9.068;33515.117
716.999;26066.434;  -10.038;33185.555
717.573;26798.441;   -9.798;33905.996
718.146;27858.563;  -12.378;35199.293
718.720;28431.625;  -11.918;35060.551
719.293;27592.238;   -8.088;34973.230
719.867;26669.496;  -10.888;36394.449
720.440;27445.037;  -11.938;36663.008
721.013;29255.377;  -12.818;35102.426
721.587;30751.020;  -10.298;33985.266
722.160;30661.934;  -10.048;33524.965
722.733;28648.512;  -12.108;32987.043
723.306;26238.354;  -10.818;33066.301
723.880;26516.668;   -8.908;33399.500
724.453;25663.281;   -9.878;33468.297
725.026;25630.643;  -11.188;33816.637
725.599;25914.359;  -11.678;32797.996
726.172;25474.502;   -9.618;33187.434
726.745;26426.955;   -8.258;35136.613
727.318;29082.223;  -12.978;35751.730
727.891;31186.598;  -12.148;35890.430
728.463;32408.156;   -8.968;34822.090
729.036;32624.969;  -10.188;32895.086
729.609;30212.510;  -11.788;31823.225
730.182;28370.482;  -11.788;31445.283
730.754;27625.402;  -10.268;32373.223
731.327;27342.014;   -9.998;33676.820
731.900;26535.740;  -12.228;33417.000
732.472;25632.752;  -13.848;31978.498
733.045;25514.771;   -8.698;30368.777
733.617;24935.873;  -10.607;30574.215
734.190;23570.590;  -11.507;31280.975
734.762;23859.514;  -13.647;31674.412
735.334;25049.020;   -9.767;31247.291
735.907;25278.629;   -9.897;29876.211
736.479;23280.285;  -11.637;29808.488
737.051;22721.703;   -9.567;30233.547
737.623;23594.855;   -8.187;31469.086
738.195;25407.641;  -11.187;31784.225
738.768;25836.014;  -12.337;32120.523
739.340;25277.936;  -12.227;32094.342
739.912;24815.295;  -11.057;31312.680
740.484;25643.533;  -10.207;31946.238
741.056;26850.334;  -10.047;32984.059
741.628;26487.174;  -13.627;33897.715
742.199;27108.760;   -7.177;33213.016
742.771;25436.193;  -10.797;31369.113
743.343;23940.580;  -11.997;31865.473
743.915;24121.479;  -12.867;32388.631
744.487;24673.613;   -7.617;31079.568
745.058;25894.461;   -9.557;30570.107
745.630;25652.717;   -9.877;29970.127
746.201;24461.395;  -14.177;29186.766
746.773;24160.207;   -9.237;28805.723
747.344;24313.785;   -9.847;29591.223
747.916;24445.188;  -11.657;31412.201
748.487;24068.938;  -10.587;32194.898
749.059;23923.568;   -8.707;32533.719
749.630;22931.207;  -10.537;32158.518
750.201;23113.238;  -11.687;30855.395
750.773;23260.967;  -11.647;28622.555
751.344;24577.916;   -7.147;28405.732
751.915;24483.760;   -9.757;28461.551
752.486;24047.078;  -12.427;27842.850
753.057;22505.967;  -12.227;27845.008
753.628;22080.697;  -10.417;27728.107
754.199;22160.260;  -11.767;27381.086
754.770;21592.566;  -11.187;25882.203
755.341;21160.793;  -10.507;25886.184
755.912;21527.096;   -9.387;26050.861
756.483;21914.139;  -10.647;26798.779
757.054;21483.354;  -11.837;27048.238
757.625;19731.682;  -12.716;26294.838
758.195;19216.102;   -9.666;26142.076
758.766;20188.578;   -8.656;26392.234
759.337;20008.377;  -12.856;26334.594
759.907;19331.076;  -13.366;27579.652
760.478;18494.920;   -8.576;28352.770
761.048;19111.316;  -10.526;27325.088
761.619;19687.869;  -11.116;26460.428
762.189;19246.152;  -12.136;26029.826
762.760;19287.729;   -9.456;26430.145
763.330;19519.334;   -7.136;26670.902
763.900;19433.137;  -11.786;26603.021
764.471;18691.777;  -11.546;25542.740
765.041;18491.576;   -8.096;24358.459
765.611;18725.953;   -8.876;23991.297
766.181;18749.541;  -12.196;24470.236
766.751;19312.826;  -11.636;24845.975
767.321;19442.264;  -10.156;24533.633
767.891;19217.787;  -11.766;24916.492
768.461;18884.738;  -14.936;24776.771
769.031;18036.398;  -12.356;24757.988
769.601;17762.625;   -7.526;24181.088
770.171;18231.578;  -10.766;23670.387
770.741;19000.484;  -13.176;22960.045
771.311;18632.230;  -10.616;22917.523
771.880;17198.289;   -9.576;23562.941
772.450;16563.596;  -10.336;24216.500
773.020;16779.123;  -13.516;24140.398
773.589;16708.883;  -13.466;24414.857
774.159;16213.510;   -8.686;23858.717
774.729;15575.461;   -9.476;22942.135
775.298;15579.775;  -13.666;22324.033
775.867;15671.311;  -11.716;21140.313
776.437;15161.335;   -9.906;20838.092
777.006;15026.494;  -12.166;20599.510
777.576;16411.203;  -12.356;20508.809
778.145;15739.579;  -11.646;20732.947
778.714;14346.532;   -8.226;21062.465
779.283;13790.196;   -9.556;20949.664
779.853;13535.672;  -14.116;20508.623
780.422;13905.920;  -11.506;20649.082
780.991;14429.314;   -9.556;21527.520
781.560;15109.835;   -9.095;22632.658
782.129;13981.333;  -12.135;23048.277
782.698;12670.625;  -10.865;23438.555
783.267;12027.529;   -9.335;23267.734
783.836;12325.676;  -11.045;22415.133
784.404;13068.889;  -13.865;20443.152
784.973;13348.236;  -13.095;19699.150
785.542;13313.247;  -11.575;19763.828
786.111;13123.779;   -9.705;20341.408
786.679;12904.058;  -12.105;20207.967
787.248;12544.104;  -12.455;19516.465
787.817;12391.797;  -11.535;18900.363
788.385;12233.896;   -9.765;17879.121
788.954;12085.103;  -14.005;17658.301
789.522;11906.498;  -11.955;17788.879
790.090;11009.789;  -10.135;18118.277
790.659;10158.555;  -10.975;18338.736
791.227;10248.333;  -13.375;18508.615
791.795;10624.686;  -12.375;17898.254
792.364;10833.414;  -10.725;17295.133
792.932;11140.327;   -9.715;16822.051
793.500;10891.235;  -12.675;17040.148
794.068;11171.502;  -13.495;17179.787
794.636;11228.516;  -10.885;16664.246
795.204;10854.134;  -11.045;16524.545
795.772;10824.223;  -13.175;17274.564
796.340;10573.512;  -12.445;17891.002
796.908;10730.336;   -9.735;17648.561
797.476;11086.037;   -9.815;17064.080
798.044;10849.074;  -13.985;16672.777
798.612;10439.554;  -13.115;17023.996
799.180; 9581.684;  -10.185;16561.615
799.747; 9209.543;   -9.055;15962.773
800.315; 9436.328;  -12.385;15296.992
800.883; 8818.029;  -15.035;14801.771
801.450; 8065.624;  -10.365;14534.430
802.018; 7768.041;   -9.855;14173.248
802.585; 7717.099;  -11.905;14029.547
803.153; 7905.159;  -11.585;13836.846
803.720; 7698.769;   -9.095;13567.324
804.287; 7589.470;   -9.135;13360.622
804.855; 7765.725;  -11.604;13681.981
805.422; 8160.648;  -11.794;13536.560
805.989; 8418.376;  -10.734;13355.958
806.556; 8340.401;  -10.444;13747.896
807.124; 8553.965;  -12.764;13987.376
807.691; 8929.288;  -12.964;14038.674
808.258; 8947.835;  -11.134;14120.152
808.825; 8929.300;   -9.854;13860.111
809.392; 8545.192;  -10.504;13268.790
809.959; 7847.838;  -13.054;12680.389
810.526; 7168.768;   -8.294;12427.308
811.093; 6533.937;   -8.394;12030.105
811.659; 6310.563;  -12.304;11653.664
812.226; 6464.705;  -13.944;11637.183
812.793; 6836.946;  -10.484;11611.521
813.360; 6960.183;  -10.144;11885.181
813.926; 6950.157;  -11.684;12770.539
814.493; 6872.262;  -13.644;12677.638
815.060; 6772.807;   -9.724;11974.336
815.626; 6941.907;   -9.854;11594.715
816.193; 6968.969;  -13.254;11579.474
816.759; 6363.230;  -13.204;11666.972
817.325; 5958.204;   -9.434;11325.530
817.892; 5860.558;  -10.134;11105.369
818.458; 6020.097;  -13.474;10843.928
819.024; 6459.822;  -11.854;10714.406
819.591; 6578.797;  -10.244;10469.165
820.157; 6374.985;  -10.704;10235.523
820.723; 6334.210;  -12.324;10847.563
821.289; 6211.394;   -9.444;11040.980
821.855; 6238.665;   -8.374;10357.100
822.421; 6529.567;  -10.234; 9978.918
822.987; 6516.292;  -13.294; 9754.177
823.553; 6249.627;  -10.884;10065.755
824.119; 6040.855;   -8.884;10036.294
824.685; 5583.832;   -6.784;10029.192
825.251; 5505.639;  -12.004;10199.230
825.816; 5274.642;  -11.474; 9820.189
826.382; 5066.688;   -9.174; 9297.248
826.948; 5340.004;   -9.214; 9381.347
827.513; 5759.044;  -10.774; 9450.726
828.079; 5866.480;  -11.924; 9472.444
828.645; 5687.838;  -10.543; 9292.643
829.210; 5568.925;  -10.533; 9065.341
829.776; 5483.122;  -10.753; 9132.620
830.341; 5627.566;  -10.173; 9092.878
830.906; 5678.119;  -10.743; 9078.557
831.472; 5477.233;  -11.113; 8534.535
832.037; 5133.021;  -10.603; 8677.874
832.602; 5013.816;  -13.323; 8628.692
833.167; 4808.291;  -10.823; 8879.031
833.733; 4691.872;  -10.113; 9189.790
834.298; 4561.340;  -13.583; 9052.608
834.863; 4744.972;  -12.703; 8895.087
835.428; 4962.092;  -10.523; 8824.266
835.993; 4880.662;   -6.963; 8845.385
836.558; 4852.529;  -10.763; 8888.563
837.123; 5020.902;   -9.903; 8966.582
837.688; 5404.400;   -9.913; 8617.860
838.253; 5453.296;  -10.283; 8590.699
838.817; 5115.015;  -12.963; 8443.797
839.382; 5017.481;  -14.243; 8799.356
839.947; 5153.595;  -10.733; 8810.595
840.511; 5140.124;   -9.383; 8796.394
841.076; 4983.312;  -12.563; 8347.231
841.641; 4834.838;  -12.953; 8224.330
842.205; 4719.526;   -7.043; 8223.349
842.770; 4523.344;   -8.163; 8622.107
843.334; 4679.875;  -12.503; 8410.386
843.898; 4844.103;  -11.693; 8337.465
844.463; 4415.995;  -10.203; 8506.283
845.027; 4097.192;   -9.533; 8280.962
845.591; 4118.344;  -13.443; 8231.141
846.156; 4183.910;  -13.143; 7969.179
846.720; 4013.093;   -9.433; 7768.278
847.284; 3914.275;  -11.033; 7630.957
847.848; 3895.155;  -10.403; 7472.395
848.412; 3729.323;  -11.553; 7437.394
848.976; 3641.975;   -8.393; 7674.592
849.540; 3599.522;   -8.713; 7836.011
850.104; 3555.541;  -12.463; 7913.669
850.668; 3611.981;  -12.973; 7694.508
851.232; 3580.582;  -10.793; 7756.887
851.796; 3612.920;  -10.662; 7926.545
852.359; 3711.117;  -13.082; 7827.844
852.923; 3683.087;  -12.192; 7641.163
853.487; 3675.750;  -11.912; 7342.501
854.050; 3517.565;  -10.892; 7042.820
854.614; 3562.163;  -13.992; 7151.338
855.177; 3623.521;  -11.732; 7105.077
855.741; 3490.325;   -8.962; 6989.675
856.304; 3356.348;   -9.442; 6596.634
856.868; 3230.426;  -14.192; 6356.272
857.431; 3179.913;  -12.702; 6468.571
857.995; 3177.553;   -9.942; 6373.210
858.558; 3262.796;   -9.112; 6324.448
859.121; 3147.571;  -12.932; 6408.327
859.684; 2981.865;  -13.442; 6347.886
860.247; 2931.240;  -10.632; 6321.264
860.810; 2894.854;  -11.272; 6301.903
861.374; 2825.740;   -9.832; 6607.881
861.937; 2735.468;  -11.762; 6408.200
862.500; 2731.430;   -9.722; 6572.639
863.062; 2710.230;  -10.512; 6387.297
863.625; 2691.913;  -11.232; 6190.836
864.188; 2717.385;  -14.112; 5807.254
864.751; 2726.937;  -11.302; 5682.413
865.314; 2621.244;  -10.112; 5547.492
865.876; 2454.782;  -12.182; 5500.150
866.439; 2298.656;  -10.722; 5415.909
867.002; 2195.155;   -9.252; 5501.567
867.564; 2245.649;   -9.572; 5413.946
868.127; 2287.655;  -13.142; 5160.325
868.689; 2361.648;  -12.902; 5133.183
869.252; 2465.331;   -9.732; 5252.382
869.814; 2393.521;   -9.432; 5297.141
870.377; 2291.602;  -11.552; 5390.919
870.939; 2290.646;   -9.052; 5599.898
871.501; 2245.735;  -10.982; 5248.336
872.063; 2135.981;  -12.292; 4854.235
872.626; 2076.292;  -14.912; 4817.074
873.188; 1986.005;  -13.112; 4987.732
873.750; 1953.196;  -13.442; 4868.651
874.312; 1916.028;   -9.402; 4779.330
874.874; 1867.581;  -11.062; 4866.348
875.436; 1765.385;  -13.931; 4718.887
875.998; 1652.391;   -9.561; 4660.005
876.560; 1636.792;  -11.321; 4462.964
877.122; 1698.965;  -12.221; 4145.042
877.683; 1812.181;  -12.191; 4056.481
878.245; 1846.430;  -12.101; 3950.740
878.807; 1866.931;   -8.971; 4058.958
879.369; 1811.787;  -12.071; 3954.677
879.930; 1681.714;  -14.621; 3941.495
880.492; 1597.859;  -10.311; 4067.014
881.053; 1598.475;  -10.901; 3859.633
881.615; 1590.687;  -14.411; 3776.071
882.176; 1525.065;  -13.761; 3734.750
882.738; 1448.902;   -9.181; 3678.489
883.299; 1435.556;  -11.791; 3405.407
883.860; 1450.151;  -13.121; 3351.106
884.422; 1403.301;  -11.211; 3394.044
884.983; 1318.647;  -10.091; 3166.443
885.544; 1274.310;   -8.461; 3189.802
886.105; 1217.117;  -12.361; 3160.360
886.666; 1153.113;  -14.141; 3093.059
887.227; 1119.076;  -11.361; 2941.957
887.788; 1065.857;  -11.401; 2974.836
888.349;  974.456;  -13.791; 2721.214
888.910;  935.264;  -13.191; 2696.493
889.471;  899.202;   -9.881; 2560.172
890.032;  905.599;   -9.881; 2558.190
890.593;  898.843;  -10.371; 2567.669
891.153;  813.564;  -13.301; 2460.307
891.714;  705.485;  -11.431; 2372.046
892.275;  658.011;  -11.291; 2309.505
892.835;  669.654;  -11.471; 2382.543
893.396;  660.207;  -11.541; 2295.502
893.956;  632.338;  -11.181; 2162.420
894.517;  593.974;  -11.741; 2125.439
895.077;  544.962;  -11.671; 2086.978
895.638;  505.794;  -11.311; 2126.316
896.198;  492.418;   -9.831; 1838.275
896.758;  477.740;   -8.421; 1892.813
897.319;  456.074;  -12.351; 1792.232
897.879;  438.279;  -13.511; 1762.751
898.439;  405.501;  -12.001; 1661.149
898.999;  384.308;  -10.180; 1781.468
899.559;  379.728;  -12.030; 1703.347
900.119;  370.901;  -15.710; 1537.525
900.679;  356.789;   -8.900; 1638.384
901.239;  336.018;   -8.340; 1527.902
901.799;  308.498;  -13.910; 1456.441
902.359;  286.563;  -13.460; 1357.140
902.919;  277.241;  -11.490; 1331.118
903.479;  277.353;  -12.110; 1317.257
904.038;  272.048;  -11.720; 1262.595
904.598;  263.878;  -13.610; 1152.034
905.158;  253.443;  -11.040; 1240.893
905.717;  237.102;  -10.900; 1233.691
906.277;  226.947;  -15.080; 1217.330
906.836;  225.327;  -13.380; 1222.408
907.396;  222.579;  -10.780; 1193.047
907.955;  214.228;   -8.500; 1182.526
908.515;  210.275;  -12.760; 1099.364
909.074;  210.416;  -11.900; 1092.863
909.633;  208.718;   -8.950; 1069.121
910.192;  206.104;   -8.770; 1196.460
910.752;  195.366;  -12.390; 1029.960
911.311;  185.868;  -13.680; 1009.780
911.870;  175.660;  -12.370;  971.460
912.429;  170.967;  -10.900; 1094.080
912.988;  168.090;  -11.690; 1081.060
913.547;  165.353;  -13.240;  940.380
914.106;  162.832;  -11.990;  999.420
914.665;  162.405;   -9.990;  984.020
915.224;  160.066;  -12.880; 1035.760
915.782;  157.776;  -12.350;  922.560
916.341;  156.812;   -9.110; 1049.840
916.900;  153.424;   -9.270;  925.260
917.458;  151.907;  -13.240;  884.220
918.017;  151.061;  -13.550;  942.600
918.576;  149.032;  -12.320;  904.440
919.134;  147.049;  -11.490;  837.980
919.693;  145.704;  -13.670;  893.060
920.251;  144.352;  -15.470;  876.500
920.809;  144.423;  -11.290;  839.580
921.368;  143.896;  -10.210;  885.360
921.926;  141.417;  -12.140;  842.940
922.484;  138.540;  -13.080;  903.360
923.042;  137.446;  -11.720;  880.340
923.601;  138.388;   -7.480;  998.680
924.159;  136.581;  -11.570;  935.560
924.717;  133.932;  -13.840;  841.080
925.275;  133.899;  -10.640;  903.240
925.833;  132.906;  -11.540;  779.320
926.391;  135.046;  -12.960;  938.380
926.949;  134.836;  -14.130;  857.680
927.506;  134.264;  -11.750;  903.500
928.064;  133.587;  -10.250;  877.580
928.622;  134.868;  -13.030;  880.100
929.180;  136.973;  -13.400;  814.180
929.737;  138.712;  -10.700;  808.540
930.295;  141.624;  -10.070;  928.480
930.853;  141.059;  -11.960;  849.100
931.410;  142.255;  -13.120;  821.120
931.968;  144.524;  -10.770;  940.660
932.525;  144.585;  -10.680;  909.380
933.082;  143.917;  -13.130;  811.440
933.640;  145.607;  -13.210;  925.900
934.197;  144.912;  -11.060;  886.360
934.754;  144.530;   -9.580;  897.780
935.312;  146.739;  -14.000;  863.340
935.869;  147.828;  -10.710; 1012.980
936.426;  146.640;   -9.860;  872.800
936.983;  146.081;   -9.710;  889.020
937.540;  147.902;  -13.990;  838.280
938.097;  152.612;  -14.040;  940.120
938.654;  156.049;  -10.310;  898.860
939.211;  156.878;  -10.560;  952.480
939.768;  157.331;  -13.900;  915.420
940.324;  159.974;  -14.760;  904.200
940.881;  162.871;  -10.370;  878.500
941.438;  166.512;   -8.260; 1021.200
941.995;  166.250;  -12.540;  992.560
942.551;  166.161;  -14.670;  875.620
943.108;  167.219;  -10.450;  937.920
943.664;  167.770;  -10.750;  869.340
944.221;  172.047;  -11.550; 1088.140
944.777;  171.471;  -14.770;  869.680
945.334;  169.221;  -12.820;  884.840
945.890;  164.538;  -10.130;  946.480
946.446;  160.828;  -13.470;  947.020
947.003;  163.132;  -12.120;  964.940
947.559;  163.375;   -9.980; 1063.040
948.115;  159.031;   -9.080; 1026.540
948.671;  157.467;  -10.830;  967.300
949.227;  156.727;  -12.440;  859.560
949.783;  157.015;  -12.910;  858.900
950.339;  161.089;  -10.270;  991.000
950.895;  162.215;  -13.630; 1023.840
951.451;  161.685;  -15.100;  925.280
952.007;  159.770;  -11.330;  998.540
952.563;  156.516;  -10.580;  937.780
953.118;  153.390;  -13.440;  904.940
953.674;  153.180;  -12.710;  935.780
954.230;  155.219;  -10.350;  949.640
954.785;  159.005;   -9.190;  936.640
955.341;  161.350;  -11.200;  998.160
955.897;  156.155;  -16.560;  834.660
956.452;  153.889;  -12.570;  953.840
957.008;  151.569;   -7.970; 1083.640
957.563;  148.068;  -11.940; 1009.540
958.118;  143.832;  -13.450;  877.700
958.674;  143.086;  -12.030;  946.780
959.229;  143.686;   -9.410; 1013.980
959.784;  144.202;  -12.000;  832.400
960.339;  145.238;  -14.780; 1001.280
960.894;  142.758;   -9.860;  963.760
961.449;  139.007;   -9.970;  859.960
962.004;  139.019;  -10.900; 1212.840
962.559;  136.095;  -13.150;  860.140
963.114;  134.171;  -13.740;  742.480
963.669;  133.901;   -9.820;  915.500
964.224;  133.554;  -13.890;  874.340
964.779;  136.158;  -12.600;  828.420
965.334;  137.576;  -10.950; 1017.860
965.888;  132.567;  -11.170;  875.360
966.443;  125.050;  -12.540;  972.380
966.998;  112.308;  -15.780;  819.460
967.552;  102.433;   -9.760;  908.380
968.107;   95.797;   -9.060;  868.300
968.661;   94.355;  -11.950;  922.440
969.216;   94.780;  -12.800;  856.280
969.770;   98.124;  -11.210;  917.200
970.324;  100.218;  -11.610;  923.140
970.879;  103.794;  -11.370;  947.180
971.433;  106.977;  -12.540;  952.720
971.987;  106.353;  -11.320;  895.340
972.541;  105.161;  -10.720;  917.100
973.095;  105.339;   -9.680; 1009.460
973.649;  102.778;  -11.440;  809.480
974.203;  101.518;  -11.210;  829.040
974.757;  102.092;  -10.240;  855.220
975.311;  102.455;  -13.720;  872.600
975.865;  102.367;  -13.770;  881.820
976.419;   99.504;  -11.690;  857.400
976.973;   97.282;   -9.510;  849.620
977.526;   97.030;  -12.620;  949.920
978.080;   95.198;  -12.010;  796.780
978.634;   94.805;  -10.170;  921.320
979.187;   94.209;   -9.020;  905.400
979.741;   95.913;   -9.820; 1018.380
980.294;   95.112;  -14.870;  789.160
980.848;   93.246;  -12.380;  717.220
981.401;   93.272;  -10.350;  816.540
981.955;   92.768;  -13.720;  844.300
982.508;   88.604;  -11.490;  746.340
983.061;   88.539;  -10.000;  915.260
983.615;   87.124;  -11.480;  798.800
984.168;   85.768;  -13.220;  770.080
984.721;   85.146;  -13.960;  880.760
985.274;   82.653;  -10.870;  867.500
985.827;   80.336;   -9.790;  834.220
986.380;   79.396;  -13.120;  721.340
986.933;   79.614;  -12.450;  864.800
987.486;   78.406;  -10.210;  861.920
988.039;   78.484;   -8.430;  863.100
988.591;   77.597;  -10.520;  893.260
989.144;   75.236;  -14.860;  737.260
989.697;   73.840;  -13.080;  758.740
990.250;   73.685;  -10.150;  858.100
990.802;   71.052;  -13.430;  755.860
991.355;   71.500;  -12.750;  974.880
991.907;   69.443;  -12.040;  864.320
992.460;   67.386;  -11.330;  753.760
993.012;   66.520;  -13.610;  749.540
993.565;   64.430;  -13.460;  711.360
994.117;   66.129;   -9.360;  950.780
994.669;   62.951;  -11.300;  701.320
995.221;   62.854;  -13.540;  791.920
995.774;   61.255;  -13.430;  787.580
996.326;   59.261;  -12.520;  740.220
996.878;   59.240;  -10.950;  838.420
997.430;   56.854;  -14.300;  699.860
997.982;   55.829;  -13.760;  750.140
998.534;   55.517;  -11.530;  739.060
999.086;   54.226;  -10.310;  738.220
999.638;   53.209;  -12.530;  661.380
1000.190;   51.597;  -11.840;  699.320
1000.741;   51.872;  -10.260;  742.700
1001.293;   51.701;   -8.860;  686.020
1001.845;   50.463;  -13.700;  676.640
1002.396;   50.501;  -12.100;  743.400
1002.948;   49.941;  -12.760;  737.400
1003.500;   47.545;  -10.380;  723.780
1004.051;   47.744;  -11.900;  907.580
1004.603;   46.669;  -12.250;  791.820
1005.154;   42.863;  -13.210;  608.980
1005.705;   42.709;  -10.950;  723.960
1006.257;   41.730;  -13.880;  707.220
1006.808;   41.544;  -12.840;  685.460
1007.359;   41.379;  -10.570;  763.240
1007.910;   40.263;   -9.620;  646.640
1008.461;   39.443;  -13.630;  732.940
1009.013;   39.219;  -17.200;  588.340
1009.564;   39.652;  -10.200;  793.520
1010.115;   37.541;  -12.570;  597.040
1010.665;   37.086;  -15.150;  602.160
1011.216;   37.817;  -14.480;  667.920
1011.767;   37.443;  -11.340;  697.920
1012.318;   36.965;   -9.780;  736.980
1012.869;   36.231;  -12.380;  679.000
1013.419;   36.655;  -15.560;  603.120
1013.970;   36.251;  -11.010;  666.640
1014.521;   35.328;  -11.610;  620.620
1015.071;   35.861;  -13.450;  670.380
1015.622;   35.759;  -13.870;  635.460
1016.172;   34.544;  -11.610;  596.820
1016.723;   33.835;  -12.120;  614.380
1017.273;   33.919;  -13.620;  604.160
1017.823;   34.054;  -14.140;  650.340
1018.374;   33.604;  -12.800;  611.760
1018.924;   33.218;  -12.340;  716.880
1019.474;   34.359;  -11.410;  718.880
1020.024;   33.184;  -14.770;  657.580
1020.574;   33.886;   -9.780;  726.160
1021.124;   33.235;   -8.560;  673.580
1021.674;   31.956;  -15.190;  559.120
1022.224;   33.251;  -13.530;  708.940
1022.774;   32.494;  -13.280;  668.820
1023.324;   32.646;  -10.690;  753.520
1023.874;   33.089;  -10.240;  875.760
1024.423;   32.364;  -12.540;  613.700
1024.973;   30.787;  -10.010;  610.760
1025.523;   29.941;  -10.550;  620.960
1026.072;   29.739;  -13.560;  606.420
1026.622;   30.988;  -15.120;  675.740
1027.172;   31.037;  -11.260;  715.660
1027.721;   29.733;  -11.410;  601.220
1028.270;   29.817;  -13.530;  663.400
1028.820;   29.845;  -13.680;  638.080
1029.369;   29.715;  -13.520;  612.700
1029.918;   29.189;  -10.980;  649.840
1030.468;   29.040;  -13.530;  564.780
1031.017;   29.060;  -13.170;  634.800
1031.566;   27.964;  -12.200;  608.900
1032.115;   28.223;   -9.960;  694.500
1032.664;   27.577;  -13.210;  596.480
1033.213;   28.441;  -12.500;  735.420
1033.762;   28.375;  -11.910;  635.620
1034.311;   27.600;   -9.640;  677.220
1034.860;   27.856;  -13.310;  691.000
1035.408;   27.985;  -11.830;  722.720
1035.957;   27.699;  -12.000;  719.540
1036.506;   26.197;  -11.690;  530.800
1037.055;   28.290;  -10.990;  844.320
1037.603;   26.415;  -15.120;  664.000
1038.152;   25.088;  -12.450;  534.760
1038.700;   25.524;  -10.560;  585.740
1039.249;   25.563;  -11.080;  681.220
1039.797;   26.157;  -12.540;  633.360
1040.345;   26.584;  -11.920;  705.420
1040.894;   25.231;  -11.410;  625.300
1041.442;   25.597;  -14.320;  632.200
1041.990;   24.809;  -16.240;  559.160
1042.538;   24.568;  -11.680;  536.180
1043.087;   24.066;  -10.760;  570.860
1043.635;   24.852;  -11.850;  670.500
1044.183;   24.190;  -15.480;  586.400
1044.731;   23.150;  -11.770;  576.000
1045.279;   23.496;  -13.090;  674.920
1045.827;   25.753;  -12.440;  892.400
1046.374;   23.366;  -13.840;  515.420
1046.922;   22.496;  -13.220;  590.580
1047.470;   24.029;  -10.230;  691.300
1048.018;   23.368;  -14.590;  647.960
1048.565;   24.300;  -12.050;  708.600
1049.113;   22.014;  -11.650;  557.000
1049.660;   22.149;  -10.510;  629.660
1050.208;   22.664;  -13.310;  675.640
1050.755;   22.153;  -15.900;  606.580
1051.303;   22.863;  -11.430;  686.820
1051.850;   21.858;   -8.480;  635.120
1052.397;   20.441;  -15.010;  473.960
1052.945;   21.499;  -13.960;  617.760
1053.492;   22.523;  -13.150;  741.840
1054.039;   22.710;   -9.630;  720.180
1054.586;   20.726;  -13.680;  557.240
1055.133;   22.060;  -14.570;  693.140
1055.680;   21.370;  -13.820;  646.620
1056.227;   20.219;  -11.730;  542.780
1056.774;   22.111;  -12.480;  794.980
1057.321;   19.765;  -13.930;  523.260
1057.868;   20.368;  -11.690;  651.320
1058.415;   19.967;   -9.520;  651.980
1058.961;   21.043;  -13.160;  678.940
1059.508;   20.535;  -12.920;  643.820
1060.055;   19.867;  -11.920;  581.780
1060.601;   19.967;  -11.500;  624.300
1061.148;   19.580;  -14.330;  616.820
1061.694;   19.706;  -16.870;  592.580
1062.241;   19.111;  -10.330;  596.320
1062.787;   19.568;  -10.620;  663.140
1063.334;   21.011;  -10.110;  808.560
1063.880;   19.129;  -13.400;  668.360
1064.426;   19.481;  -10.680;  706.820
1064.972;   18.401;   -9.920;  601.340
1065.518;   17.110;  -10.980;  566.640
1066.065;   18.908;  -14.890;  624.460
1066.611;   17.728;  -12.870;  598.800
1067.157;   18.198;  -12.950;  641.860
1067.703;   18.225;  -13.540;  668.480
1068.249;   18.234;  -13.540;  605.220
1068.794;   17.644;  -12.600;  626.880
1069.340;   16.614;  -10.620;  578.960
1069.886;   17.194;  -12.830;  590.700
1070.432;   16.535;  -14.870;  541.720
1070.977;   16.935;  -11.980;  601.080
1071.523;   16.468;   -8.200;  573.060
1072.068;   16.559;  -12.330;  582.000
1072.614;   16.007;  -16.370;  527.760
1073.160;   17.104;  -11.100;  687.040
1073.705;   15.744;  -10.480;  572.520
1074.250;   15.357;  -14.520;  559.900
1074.796;   16.597;  -11.460;  655.160
1075.341;   16.604;  -11.950;  664.100
1075.886;   16.127;  -11.460;  594.240
1076.431;   15.010;  -13.770;  649.880
1076.976;   15.257;  -12.680;  639.220
1077.521;   14.750;  -13.170;  583.080
1078.067;   14.042;  -10.860;  579.400
1078.612;   15.254;  -13.920;  661.620
1079.156;   15.215;  -13.880;  601.540
1079.701;   15.612;  -13.120;  693.260
1080.246;   15.607;   -9.940;  696.300
1080.791;   14.323;  -14.740;  625.020
1081.336;   14.974;  -13.750;  659.320
1081.880;   14.939;  -13.400;  649.680
1082.425;   14.458;  -12.220;  573.480
1082.970;   14.916;  -11.610;  717.040
1083.514;   14.285;  -13.580;  597.000
1084.059;   13.069;  -12.810;  586.720
1084.603;   13.135;  -12.320;  565.840
1085.147;   13.419;  -13.190;  645.220
1085.692;   15.376;  -12.480;  716.800
1086.236;   13.127;  -13.020;  503.140
1086.780;   14.808;   -9.190;  751.440
1087.325;   13.217;  -12.480;  654.620
1087.869;   13.637;  -12.450;  610.700
1088.413;   13.568;  -12.240;  705.040
1088.957;   11.368;   -9.020;  543.400
1089.501;   13.244;  -10.320;  766.640
1090.045;   12.877;  -12.720;  726.480
1090.589;   10.986;  -13.690;  569.920
1091.133;   12.272;  -10.020;  673.340
1091.676;   12.239;  -12.330;  591.940
1092.220;   13.194;  -14.970;  600.920
1092.764;   13.209;  -12.430;  706.960
1093.307;   12.307;   -9.800;  673.780
1093.851;   10.697;  -14.970;  556.540
1094.395;   12.540;  -15.310;  683.140
1094.938;   11.381;  -10.370;  632.520
1095.482;   11.251;  -11.050;  559.800
1096.025;   11.524;  -11.840;  710.880
1096.568;   12.044;  -12.840;  779.280
1097.112;    9.987;  -14.700;  508.180
1097.655;   11.220;   -8.720;  603.000
1098.198;    9.327;  -13.610;  600.180
1098.741;   10.228;  -13.350;  612.860
1099.285;   10.892;  -11.230;  657.300
1099.828;    8.739;  -11.840;  439.400
1100.371;   10.319;  -10.840;  608.160
1100.914;   10.494;  -14.190;  682.660
1101.457;   10.572;  -11.240;  679.900
1101.999;    9.006;  -11.270;  584.680
1102.542;    9.763;  -11.480;  641.440
1103.085;    9.783;  -11.750;  658.500
1103.628;   10.221;  -11.400;  762.060
1104.170;    9.343;  -10.490;  588.280
1104.713;    9.948;  -10.600;  646.700
1105.256;    8.561;  -14.360;  557.440
1105.798;    8.348;  -13.210;  499.980
1106.341;    9.370;  -10.270;  728.900
1106.883;    8.519;  -12.200;  521.340
1107.425;    9.221;  -13.110;  668.180
1107.968;    9.321;  -12.840;  612.380
1108.510;    8.744;   -6.480;  684.960
1109.052;    7.779;  -13.940;  612.620
1109.594;    7.937;  -13.690;  554.440
1110.136;    9.114;  -11.880;  643.220
1110.679;    8.308;   -9.500;  633.080
1111.221;    8.869;  -14.160;  604.460
1111.763;    8.629;  -13.980;  559.220
1112.304;    7.066;  -13.880;  547.140
1112.846;    7.655;  -12.210;  666.240
1113.388;   10.420;  -11.390;  942.180
1113.930;    7.874;  -14.540;  694.200
1114.472;    7.090;  -12.640;  606.540
1115.013;    5.712;  -11.620;  551.280
1115.555;    6.750;  -13.640;  587.100
1116.097;    5.973;  -15.380;  579.480
1116.638;    7.770;  -12.640;  684.600
1117.180;    7.177;   -9.850;  667.740
1117.721;    6.236;  -13.690;  568.580
1118.262;    7.489;  -12.680;  677.960
1118.804;    6.615;  -12.530;  637.340
1119.345;    5.716;  -11.690;  578.400
1119.886;    6.636;  -13.380;  704.040
1120.427;    6.012;  -14.070;  589.020
1120.969;    5.639;  -13.500;  597.920
1121.510;    5.665;  -11.480;  563.060
1122.051;    6.387;  -12.830;  723.580
1122.592;    5.768;  -14.290;  655.420
1123.133;    4.839;  -12.400;  547.940
1123.673;    5.652;  -10.130;  706.480
1124.214;    5.085;  -12.930;  612.460
1124.755;    5.749;  -14.380;  639.460
1125.296;    6.172;  -14.000;  627.320
1125.836;    5.155;  -10.070;  691.500
1126.377;    4.514;  -12.640;  599.660
1126.918;    5.897;  -12.960;  614.980
1127.458;    4.341;  -13.350;  622.220
1127.999;    5.080;  -10.750;  656.980
1128.539;    4.925;  -12.350;  694.240
1129.079;    4.394;  -14.860;  632.720
1129.620;    4.762;  -13.840;  558.100
1130.160;    3.630;  -12.330;  539.480
1130.700;    4.315;  -14.530;  640.840
1131.240;    4.835;  -12.530;  643.700
1131.781;    3.866;  -14.450;  619.680
1132.321;    4.514;   -9.790;  599.120
1132.861;    2.406;  -14.860;  564.200
1133.401;    3.172;  -14.290;  593.940
1133.941;    3.742;  -11.750;  626.280
1134.481;    2.978;   -9.920;  597.580
1135.020;    3.713;  -12.290;  609.160
1135.560;    3.482;  -11.650;  674.940
1136.100;    3.094;  -16.270;  501.160
1136.640;    2.389;  -10.890;  510.480
1137.179;    2.529;  -14.180;  537.960
1137.719;    3.055;  -16.250;  605.400
1138.258;    2.898;  -14.230;  587.360
1138.798;    3.746;   -9.090;  663.780
1139.337;    1.163;  -15.130;  482.840
1139.877;    3.359;  -13.680;  642.360
1140.416;    4.683;  -11.320;  878.060
1140.955;    2.158;  -10.860;  535.380
1141.494;    2.627;  -12.920;  669.280
1142.034;    2.678;  -13.930;  583.520
1142.573;    3.552;  -11.440;  646.280
1143.112;    1.464;  -12.000;  553.480
1143.651;    2.463;  -13.670;  536.480
1144.190;    3.526;  -12.730;  691.640
1144.729;    2.300;  -14.560;  607.420
1145.267;    1.951;  -11.830;  584.900
1145.806;    3.051;  -12.230;  637.040
1146.345;    2.253;  -14.130;  635.020
1146.884;    1.138;  -11.590;  622.500
1147.422;    1.139;  -12.550;  533.060
1147.961;    3.001;  -11.180;  708.460
1148.500;    3.121;  -11.510;  669.720
1149.038;    2.104;  -11.640;  632.500
1149.577;    1.896;  -10.130;  698.640
1150.115;    0.082;  -13.970;  452.280
1150.653;    2.138;  -14.520;  607.340
1151.192;    1.529;  -12.810;  552.920
1151.730;    1.760;   -9.100;  652.560
1152.268;    0.408;  -12.220;  589.520
1152.806;    0.410;  -14.140;  571.180
1153.344;   -0.135;  -12.350;  577.640
1153.882;    0.876;   -8.980;  600.060
1154.421;    0.041;  -15.190;  470.620
1154.958;    0.528;  -15.210;  595.240
1155.496;    1.858;  -12.850;  645.280
1156.034;    0.805;   -9.940;  721.880
1156.572;    1.839;  -13.570;  667.060
1157.110;   -0.053;  -14.590;  473.940
1157.647;    1.012;  -13.030;  676.960
1158.185;   -0.336;  -12.140;  564.320
1158.723;   -1.604;  -14.390;  509.200
1159.260;    0.915;  -14.090;  701.700
1159.798;    0.741;  -11.920;  658.160
1160.335;   -0.352;  -11.110;  631.820

