
Integration time [ms]:   3.276
Averaging Nr. [scans]: 1000
Smoothing Nr. [pixels]: 0
Data measured with spectrometer [name]: 7414430SP
Wave   ;Sample   ;Dark     ;Reference
[nm]   ;[counts] ;[counts] ;[counts] 

288.544;  159.307;    7.793;  793.890
289.143;  160.533;    7.462;  681.602
289.742;  161.407;    8.602;  828.814
290.341;  150.182;    1.321;  789.841
290.940;  140.131;   -0.709;  730.702
291.538;  140.784;    0.881;  881.108
292.137;  139.807;    0.122;  792.581
292.736;  143.578;   -1.929;  975.101
293.335;  139.354;   -8.229;  735.086
293.934;  140.463;   -5.279;  781.677
294.532;  141.084;   -1.369; 1031.958
295.131;  127.697;   -7.641;  834.394
295.730;  126.997;   -8.420;  809.588
296.328;  123.639;   -5.611;  783.442
296.927;  123.270;   -5.781;  779.652
297.525;  125.255;   -6.361;  781.236
298.124;  117.451;  -11.382;  654.009
298.722;  119.886;   -7.641;  761.933
299.321;  117.675;   -6.811;  708.597
299.919;  114.583;   -6.991;  751.918
300.518;  110.185;  -10.362;  689.338
301.116;  113.393;   -9.581;  691.381
301.715;  113.920;   -4.891;  730.222
302.313;  112.420;   -8.801;  704.943
302.911;  108.736;   -8.522;  733.830
303.509;  111.766;   -6.171;  925.627
304.108;  110.043;   -7.311;  760.383
304.706;  110.066;   -8.321;  801.664
305.304;  104.261;  -10.222;  796.707
305.902;  109.597;   -6.021;  784.484
306.500;  104.305;   -4.971;  728.200
307.098;  104.019;   -7.061;  746.560
307.696;  101.956;   -8.801;  780.432
308.294;  101.553;   -6.411;  731.359
308.892;  103.470;   -2.901;  759.769
309.490;   98.817;   -5.041;  712.161
310.088;   97.934;   -5.002;  788.444
310.686;  101.644;   -2.041;  821.749
311.284;   97.672;   -2.351;  766.040
311.882;   95.198;   -4.422;  731.225
312.480;   92.376;   -4.192;  697.167
313.078;   93.776;   -1.172;  808.331
313.675;   93.917;   -2.601;  691.600
314.273;   89.551;   -1.312;  797.837
314.871;   88.426;   -3.942;  589.829
315.468;   85.860;   -2.802;  652.090
316.066;   89.332;   -0.701;  694.427
316.664;   82.575;   -4.362;  656.351
317.261;   87.005;   -2.872;  910.128
317.859;   80.998;   -2.022;  768.735
318.456;   82.521;   -0.531;  830.096
319.054;   78.504;   -3.912;  787.828
319.651;   77.007;   -4.752;  759.928
320.249;   76.068;   -2.602;  810.188
320.846;   73.331;   -0.821;  714.286
321.443;   70.366;   -4.642;  832.135
322.041;   67.669;   -5.002;  812.315
322.638;   65.427;   -3.982;  701.456
323.235;   66.697;   -3.411;  665.683
323.833;   63.484;   -7.361;  740.354
324.430;   59.441;   -8.611;  615.900
325.027;   59.800;   -4.061;  876.855
325.624;   59.531;   -4.031;  644.532
326.221;   56.372;   -7.481;  689.717
326.818;   56.453;   -5.281;  818.332
327.415;   58.994;   -7.460;  748.828
328.012;   57.834;   -5.510;  690.585
328.609;   55.743;   -7.880;  731.389
329.206;   55.154;   -8.331;  778.621
329.803;   55.515;   -5.121;  737.841
330.400;   56.869;   -4.510;  704.260
330.997;   58.589;   -6.441;  817.147
331.594;   57.253;   -8.831;  788.185
332.191;   62.269;   -7.621;  728.722
332.787;   66.070;   -4.591;  844.463
333.384;   65.880;   -7.412;  763.093
333.981;   64.252;   -8.293;  815.687
334.578;   67.798;   -7.052;  708.378
335.174;   68.844;   -3.102;  731.469
335.771;   67.803;   -5.943;  836.456
336.367;   66.053;   -7.393;  710.631
336.964;   71.471;   -4.063;  793.266
337.561;   68.084;   -3.813;  731.112
338.157;   64.247;   -4.654;  911.916
338.754;   62.810;   -7.934;  796.589
339.350;   60.486;   -4.414;  722.493
339.946;   62.733;   -4.664;  773.135
340.543;   54.221;   -6.375;  846.136
341.139;   48.164;   -9.815;  720.836
341.735;   45.475;   -4.526;  772.593
342.332;   44.484;   -4.895;  691.472
342.928;   44.151;   -4.295;  795.394
343.524;   37.852;   -5.476;  761.684
344.120;   33.839;   -5.856;  738.562
344.716;   36.989;   -2.155;  723.717
345.313;   34.626;   -6.275;  795.342
345.909;   29.400;   -8.815;  627.336
346.505;   31.305;   -5.305;  740.247
347.101;   31.479;   -2.674;  827.864
347.697;   31.341;   -4.344;  785.398
348.293;   26.185;   -9.975;  627.244
348.889;   27.814;   -5.774;  745.914
349.485;   26.431;   -5.004;  688.205
350.081;   26.974;   -4.704;  772.592
350.676;   21.779;   -6.635;  691.606
351.272;   26.076;   -4.504;  809.530
351.868;   26.084;   -3.914;  780.497
352.464;   23.495;   -9.044;  723.932
353.059;   20.175;   -8.314;  646.017
353.655;   22.571;   -7.024;  777.063
354.251;   23.924;   -5.343;  759.845
354.846;   17.856;   -8.604;  740.646
355.442;   16.574;   -6.945;  753.071
356.038;   18.035;   -7.564;  751.708
356.633;   17.931;   -5.814;  728.594
357.229;   16.590;   -7.364;  724.757
357.824;   13.859;   -8.024;  703.600
358.420;   13.212;   -9.384;  679.726
359.015;   14.170;   -5.104;  695.357
359.610;   14.760;   -6.854;  763.920
360.206;    8.964;  -10.185;  603.240
360.801;   11.716;   -7.054;  646.503
361.396;   13.458;   -5.034;  725.975
361.992;    8.826;   -8.284;  668.220
362.587;    5.988;   -8.625;  670.160
363.182;    7.957;   -7.674;  689.631
363.777;    8.588;   -5.164;  738.242
364.372;    8.333;   -8.604;  737.314
364.967;    4.701;   -9.055;  680.744
365.563;    8.561;   -6.114;  815.567
366.158;    5.672;   -5.814;  685.161
366.753;    5.893;   -7.854;  649.263
367.348;    4.750;   -7.804;  746.056
367.942;    4.290;   -7.954;  697.298
368.537;    3.511;   -4.984;  754.245
369.132;    3.730;   -8.564;  703.428
369.727;   -0.408;   -8.855;  638.079
370.322;    1.198;   -6.245;  580.186
370.917;    0.262;   -6.425;  710.646
371.511;    3.725;   -6.294;  861.834
372.106;    0.545;   -7.685;  776.964
372.701;   -3.661;   -7.335;  585.988
373.296;    1.711;   -4.564;  863.135
373.890;   -2.747;  -10.235;  647.840
374.485;   -5.077;   -7.885;  691.199
375.079;   -1.083;   -7.324;  738.685
375.674;    0.376;   -3.494;  812.970
376.268;   -4.341;   -8.525;  691.759
376.863;   -9.434;  -10.086;  580.327
377.457;   -3.048;   -7.025;  662.490
378.052;   -5.255;   -3.585;  764.884
378.646;   -5.979;   -7.595;  741.167
379.240;   -6.781;   -8.335;  721.176
379.835;   -5.714;   -5.785;  636.978
380.429;   -7.553;   -4.335;  562.557
381.023;   -8.025;   -6.805;  779.205
381.617;  -10.284;   -9.195;  680.106
382.212;   -7.029;   -6.905;  685.303
382.806;   -6.228;   -3.745;  760.690
383.400;  -10.640;   -7.745;  672.281
383.994;  -11.541;   -9.765;  664.870
384.588;   -7.198;   -6.564;  697.701
385.182;   -6.929;   -5.344;  726.624
385.776;   -8.716;   -8.514;  706.875
386.370;  -11.133;   -9.555;  681.968
386.964;   -9.639;   -8.715;  684.155
387.558;   -7.996;   -6.174;  598.360
388.152;  -12.025;   -8.725;  681.959
388.745;  -10.434;   -7.965;  814.707
389.339;   -8.183;   -5.924;  747.642
389.933;   -7.250;   -5.524;  695.370
390.527;   -8.971;   -7.114;  859.029
391.120;  -14.569;  -10.725;  595.318
391.714;  -12.089;   -8.035;  711.633
392.308;   -8.973;   -3.574;  780.253
392.901;  -12.864;   -7.245;  642.460
393.495;  -13.897;   -9.285;  595.414
394.089;  -12.397;   -5.895;  760.452
394.682;  -13.441;   -4.295;  697.188
395.275;  -13.615;   -9.875;  719.927
395.869;  -14.726;   -8.485;  667.314
396.462;  -13.089;   -7.455;  616.609
397.056;   -9.304;   -5.424;  776.621
397.649;  -14.059;   -6.605;  731.575
398.242;  -11.495;   -8.224;  712.645
398.836;  -10.798;   -7.474;  766.408
399.429;  -11.956;   -7.094;  631.041
400.022;  -15.070;   -9.475;  665.902
400.615;  -12.234;   -7.145;  805.609
401.208;  -10.660;   -7.174;  691.451
401.802;  -13.774;   -5.515;  699.329
402.395;  -14.043;   -9.875;  683.502
402.988;  -15.037;   -8.845;  696.627
403.581;  -12.028;   -8.874;  646.878
404.174;   -9.892;   -5.324;  686.568
404.767;  -12.529;   -9.575;  638.583
405.360;  -15.470;  -10.965;  621.445
405.953;  -10.203;   -8.764;  759.034
406.545;   -9.364;   -7.514;  725.342
407.138;  -13.294;  -10.025;  618.350
407.731;  -12.502;  -10.034;  613.303
408.324;   -7.636;   -9.374;  660.554
408.917;   -9.323;   -6.534;  681.864
409.509;  -11.003;   -8.004;  740.396
410.102;  -13.749;   -9.875;  643.948
410.695;   -6.873;   -8.604;  665.758
411.287;   -8.158;   -6.794;  599.821
411.880;   -9.371;   -9.334;  585.421
412.472;  -12.010;  -10.254;  613.092
413.065;   -9.299;   -6.714;  629.408
413.657;   -7.530;   -7.234;  576.678
414.250;   -7.421;  -10.544;  646.681
414.842;   -9.144;   -9.744;  676.353
415.434;   -7.279;   -6.994;  570.463
416.027;   -2.973;   -5.893;  652.196
416.619;   -4.996;   -7.264;  713.400
417.211;   -5.484;  -10.374;  599.352
417.804;   -2.305;   -7.993;  628.499
418.396;   -5.924;   -7.234;  607.643
418.988;   -3.609;   -9.443;  659.238
419.580;   -6.576;  -10.724;  568.276
420.172;   -4.650;  -10.323;  536.196
420.764;   -0.861;   -8.793;  672.482
421.356;   -1.668;  -11.143;  636.898
421.948;   -3.246;   -8.293;  677.661
422.540;    1.966;   -7.893;  680.027
423.132;    1.815;   -7.082;  600.641
423.724;   -1.584;   -8.653;  561.267
424.316;    0.607;  -10.213;  621.345
424.908;    4.432;   -9.762;  591.517
425.500;    4.689;   -5.572;  647.978
426.092;    5.440;   -8.422;  648.268
426.683;    3.822;   -9.283;  684.836
427.275;    7.037;   -7.852;  641.471
427.867;    8.114;   -5.272;  668.948
428.458;    8.898;   -7.682;  732.344
429.050;    6.992;  -10.612;  680.749
429.642;    8.971;   -9.882;  743.124
430.233;    9.663;   -6.962;  569.356
430.825;   11.011;   -6.842;  724.809
431.416;    8.627;   -9.672;  698.241
432.008;   12.001;   -6.552;  651.723
432.599;   13.370;   -6.891;  656.073
433.190;   10.139;  -10.912;  637.670
433.782;    9.610;  -11.172;  590.395
434.373;   16.918;   -6.061;  884.765
434.964;   15.286;   -8.251;  602.920
435.556;   13.444;   -9.722;  634.537
436.147;   15.532;   -9.082;  758.490
436.738;   16.018;   -8.041;  701.099
437.329;   21.587;   -7.341;  721.723
437.920;   14.484;   -8.162;  666.688
438.511;   14.213;  -11.802;  564.526
439.103;   20.779;  -10.191;  623.998
439.694;   22.384;   -7.601;  681.583
440.285;   23.394;   -8.541;  764.432
440.876;   21.476;   -9.751;  845.738
441.466;   20.542;   -9.401;  575.162
442.057;   25.746;   -7.760;  665.814
442.648;   24.781;   -9.971;  746.255
443.239;   23.360;  -11.001;  620.477
443.830;   28.106;   -7.990;  704.958
444.421;   30.357;   -7.910;  655.474
445.011;   26.616;   -8.131;  693.619
445.602;   25.734;   -7.111;  743.126
446.193;   28.715;  -10.920;  488.117
446.783;   32.327;   -6.500;  640.397
447.374;   27.514;   -8.671;  692.759
447.964;   28.564;  -10.781;  713.770
448.555;   37.195;   -9.650;  822.742
449.145;   33.909;   -8.660;  662.853
449.736;   34.863;   -8.990;  803.179
450.326;   34.089;   -9.500;  713.626
450.917;   39.014;   -8.680;  675.324
451.507;   38.399;   -7.520;  600.661
452.097;   39.383;   -8.590;  746.267
452.688;   40.108;  -11.340;  742.160
453.278;   39.693;  -10.100;  566.840
453.868;   44.644;   -6.019;  793.550
454.458;   43.029;   -9.440;  651.141
455.048;   42.478;  -10.560;  711.783
455.639;   43.620;  -11.799;  567.096
456.229;   46.980;   -6.899;  710.694
456.819;   49.608;   -7.389;  751.158
457.409;   50.623;  -11.119;  773.993
457.999;   53.052;   -9.289;  737.505
458.589;   52.767;   -6.139;  686.606
459.179;   52.120;   -8.729;  717.658
459.769;   50.847;   -9.789;  627.099
460.358;   56.314;  -10.259;  797.262
460.948;   55.124;   -7.299;  689.503
461.538;   57.308;  -10.289;  660.677
462.128;   55.134;  -11.269;  664.934
462.717;   61.990;   -9.368;  710.326
463.307;   64.659;   -7.908;  705.846
463.897;   60.675;   -9.599;  656.942
464.486;   59.874;   -9.769;  837.128
465.076;   64.556;   -8.048;  733.776
465.666;   67.493;   -9.358;  652.900
466.255;   65.746;   -7.919;  785.651
466.845;   64.615;  -11.689;  666.749
467.434;   67.939;   -7.818;  725.873
468.023;   68.853;   -7.678;  658.357
468.613;   66.614;  -10.939;  713.946
469.202;   70.836;  -10.118;  646.507
469.791;   76.330;   -9.108;  737.811
470.381;   76.841;   -6.058;  742.813
470.970;   76.917;  -10.428;  711.099
471.559;   77.375;  -10.268;  733.291
472.148;   79.910;   -8.448;  675.737
472.738;   81.487;   -6.917;  765.466
473.327;   81.380;  -11.978;  637.529
473.916;   81.747;  -11.888;  737.446
474.505;   85.657;   -9.437;  751.703
475.094;   88.871;   -6.747;  806.570
475.683;   88.065;   -9.367;  797.699
476.272;   88.603;  -12.637;  730.632
476.861;   91.532;  -10.027;  706.754
477.449;   98.266;   -8.716;  728.487
478.038;   92.539;   -9.577;  692.513
478.627;   93.582;   -9.718;  714.852
479.216;  100.436;   -8.947;  769.441
479.805;  103.321;   -6.256;  783.375
480.393;  103.648;   -7.937; 1008.945
480.982;  102.424;   -7.717;  874.501
481.571;  109.257;   -9.266;  858.333
482.159;  109.285;   -7.636;  705.386
482.748;  109.550;   -9.667;  821.385
483.336;  114.038;  -10.376;  858.209
483.925;  114.546;   -7.147;  774.373
484.513;  121.416;   -7.996;  758.962
485.102;  118.831;  -10.027;  810.965
485.690;  127.636;  -10.446; 1011.050
486.278;  129.512;   -8.446;  979.329
486.867;  129.329;   -6.356;  809.662
487.455;  131.898;   -9.136;  898.229
488.043;  133.967;  -10.646;  748.361
488.631;  142.976;   -7.456; 1005.079
489.220;  146.528;   -6.636;  908.626
489.808;  146.877;  -11.036;  741.415
490.396;  154.938;  -10.246;  914.645
490.984;  162.822;   -8.556;  830.161
491.572;  174.206;   -5.886;  940.315
492.160;  181.682;   -9.486;  919.081
492.748;  194.793;  -10.976;  884.341
493.336;  218.890;   -8.776; 1019.693
493.924;  247.342;   -5.465;  958.077
494.512;  282.332;   -9.986; 1066.638
495.100;  331.690;  -10.636; 1103.280
495.687;  393.706;  -10.885; 1206.373
496.275;  451.017;   -8.126; 1150.796
496.863;  521.749;  -10.586; 1281.171
497.451;  639.450;  -11.926; 1386.805
498.038;  753.306;  -10.885; 1556.729
498.626;  850.407;   -6.315; 1741.407
499.214; 1005.626;   -7.326; 2016.609
499.801; 1233.824;  -11.906; 2220.633
500.389; 1493.327;  -10.466; 2312.494
500.976; 1743.849;   -5.236; 2744.849
501.564; 2166.119;   -8.936; 3148.565
502.151; 2630.286;  -13.176; 3515.999
502.738; 3162.282;  -10.646; 3971.274
503.326; 3551.021;   -9.525; 4403.796
503.913; 3854.218;  -10.856; 5161.749
504.500; 4378.471;  -11.586; 5986.420
505.088; 4669.274;  -10.336; 6381.201
505.675; 5136.624;   -6.355; 6925.547
506.262; 5608.278;   -9.046; 7619.060
506.849; 6150.981;  -10.416; 8733.969
507.436; 6678.938;  -10.305; 9790.121
508.023; 7146.041;   -5.496; 9985.472
508.610; 7980.626;   -7.856;10434.618
509.197; 9308.017;  -10.097;11198.435
509.784;10774.167;  -10.886;12391.194
510.371;12153.647;   -9.315;13603.713
510.958;13032.396;   -9.936;14426.586
511.545;13669.821;   -9.326;15243.775
512.132;14211.549;  -10.075;15945.876
512.719;14364.075;   -7.796;16340.369
513.305;15243.714;  -10.606;18011.766
513.892;16513.715;  -11.486;19754.971
514.479;18264.266;   -9.126;20967.805
515.066;19882.002;   -6.026;22299.793
515.652;20050.154;   -8.466;22908.660
516.239;21127.410;  -10.886;23798.875
516.825;23430.049;  -11.496;25567.275
517.412;25487.211;   -5.796;28154.959
517.998;27419.625;  -10.506;28344.111
518.585;26922.477;  -10.076;27134.219
519.171;25551.920;   -8.315;27268.576
519.758;26540.023;   -8.596;28964.129
520.344;27817.670;   -8.466;30664.494
520.930;30213.191;  -11.006;32550.605
521.516;30341.850;  -10.495;35422.895
522.103;28683.914;   -5.526;38280.004
522.689;29152.467;   -8.746;37835.117
523.275;30448.402;  -11.376;37288.613
523.861;31748.586;  -11.156;37281.395
524.447;33432.160;   -8.135;37846.949
525.033;31688.885;   -7.896;38321.949
525.619;30110.461;  -12.476;38579.285
526.205;32479.244;   -9.516;40622.875
526.791;35774.543;   -6.926;42258.836
527.377;38758.906;   -8.346;42966.902
527.963;41046.184;   -8.717;42018.949
528.549;40094.543;  -11.016;42476.828
529.135;40376.723;   -8.536;41854.852
529.721;40006.719;   -9.666;41237.711
530.306;38276.930;  -10.066;41259.445
530.892;38012.973;  -11.356;41506.047
531.478;37339.980;   -6.596;43559.613
532.063;37812.566;   -8.836;47695.563
532.649;41395.320;  -10.047;50808.324
533.235;42676.805;   -9.746;51787.500
533.820;41926.508;   -6.566;52145.035
534.406;40833.719;  -10.817;51133.488
534.991;43507.117;   -9.416;49996.805
535.576;44471.609;   -9.036;48882.852
536.162;44562.727;   -6.156;46942.285
536.747;45813.066;  -11.607;45711.746
537.333;46133.688;  -11.787;48510.180
537.918;46067.570;  -12.437;50439.891
538.503;46915.820;   -7.196;50863.711
539.088;44073.426;  -10.556;50906.922
539.673;42106.832;   -8.767;52621.965
540.259;42276.109;  -10.026;52368.094
540.844;41967.383;   -7.416;50879.109
541.429;38188.160;   -9.467;52077.777
542.014;35841.859;   -9.527;52716.695
542.599;38881.715;   -9.946;52363.281
543.184;45410.035;   -7.927;53187.137
543.769;48046.086;   -9.297;54697.605
544.354;46917.230;  -10.127;53913.914
544.938;45720.078;   -9.267;49680.164
545.523;47890.684;   -6.506;47386.277
546.108;51427.719;   -9.787;49151.949
546.693;50765.941;  -11.587;51384.637
547.278;50638.750;  -10.986;51853.254
547.862;47590.980;   -8.206;51173.750
548.447;44744.691;  -10.067;51691.395
549.031;45361.582;   -9.637;52456.703
549.616;46213.758;   -9.926;52714.516
550.201;45191.305;   -6.347;52414.598
550.785;44855.363;   -7.917;52355.059
551.370;46053.121;  -10.867;54589.453
551.954;46768.707;   -9.047;58267.348
552.538;47667.793;   -7.827;59062.176
553.123;47520.121;  -10.287;58115.285
553.707;43445.508;  -12.178;56556.285
554.291;44207.938;   -8.717;56201.668
554.876;47363.258;   -7.457;55335.762
555.460;48500.473;  -10.387;54155.703
556.044;49536.824;   -9.618;53721.484
556.628;48511.797;  -11.567;53731.016
557.212;46422.992;   -8.097;54312.531
557.796;47765.387;  -11.077;53797.773
558.380;45708.840;  -11.108;56145.984
558.964;44398.309;   -9.057;57277.930
559.548;44009.305;   -6.977;56459.641
560.132;42805.676;  -11.457;54434.543
560.716;42030.305;  -11.378;54800.617
561.300;43006.258;   -9.577;57606.945
561.884;44857.426;   -7.127;58972.445
562.467;45715.793;   -7.118;57327.570
563.051;45173.121;  -13.358;54962.434
563.635;42967.398;  -10.178;52594.473
564.219;42386.246;   -7.837;50610.410
564.802;42128.863;  -11.398;49551.180
565.386;43276.215;  -12.788;48370.953
565.969;44028.129;   -9.077;48178.871
566.553;44240.320;   -6.207;49957.305
567.136;41370.023;   -8.568;50369.594
567.720;40543.457;  -11.868;49492.004
568.303;40451.574;   -8.268;50616.352
568.887;39170.848;   -8.698;50727.148
569.470;39453.434;   -6.808;51698.379
570.053;38242.891;  -13.188;52122.078
570.637;36857.539;  -12.037;52536.438
571.220;36087.176;   -8.577;51186.098
571.803;36516.031;   -8.498;51032.762
572.386;39129.348;  -10.498;49609.887
572.969;40603.680;   -9.388;48285.926
573.552;37014.254;   -8.338;47624.285
574.135;35012.867;   -8.518;45498.641
574.718;31789.039;  -13.628;41970.434
575.301;31391.078;  -10.893;41447.137
575.884;30993.117;   -8.158;40923.836
576.467;35953.961;  -10.328;45267.723
577.050;34505.695;  -13.058;48175.543
577.633;33674.406;   -9.458;47729.328
578.216;35313.574;   -8.928;47579.793
578.799;36164.004;   -9.358;47820.996
579.381;35462.277;  -11.388;48115.551
579.964;32468.141;  -11.718;47333.766
580.547;32254.984;   -8.588;46668.969
581.129;33902.953;   -8.859;44466.141
581.712;34302.348;  -10.729;44164.922
582.294;35555.883;  -11.118;46477.855
582.877;33416.344;   -5.218;48244.254
583.459;33369.902;   -8.679;47437.895
584.042;35148.496;  -10.709;46943.219
584.624;37258.465;  -11.669;46792.227
585.206;36395.934;   -8.218;46557.250
585.789;35211.563;  -10.569;45793.773
586.371;35519.176;  -11.859;43836.391
586.953;34018.969;  -10.719;42972.492
587.536;35608.031;   -7.198;42487.211
588.118;37060.957;   -8.720;42086.414
588.700;36429.375;  -10.439;43389.930
589.282;36611.008;   -9.198;43646.039
589.864;35421.688;   -9.199;43438.109
590.446;33172.121;  -11.319;43151.926
591.028;32776.500;  -11.159;42781.867
591.610;32575.531;  -11.779;42839.098
592.192;29677.613;   -7.668;42820.402
592.774;30482.291;  -11.949;40724.277
593.356;31461.654;  -12.129;39874.789
593.937;29211.395;  -10.669;39980.648
594.519;30534.486;   -6.509;42069.633
595.101;32467.715;  -10.849;42976.031
595.683;31300.270;  -11.679;44084.441
596.264;31294.867;   -9.049;43478.797
596.846;33232.973;   -8.849;43803.672
597.427;33202.203;   -9.570;42986.934
598.009;34402.730;  -12.620;42832.219
598.591;33618.238;  -10.039;42580.086
599.172;32544.980;  -10.369;43061.805
599.753;30747.650;   -9.140;41691.469
600.335;30692.955;  -11.430;40692.520
600.916;31269.684;   -9.939;39982.422
601.498;30033.479;   -8.479;40318.617
602.079;28743.432;  -10.920;40670.609
602.660;30489.445;  -11.480;41450.898
603.241;31944.932;  -11.699;41137.738
603.823;32496.424;   -9.579;38868.797
604.404;32267.365;  -10.620;38182.785
604.985;30941.795;  -10.450;38078.047
605.566;30527.617;   -9.129;38056.633
606.147;30527.693;   -7.510;37020.418
606.728;31693.154;  -10.660;37883.359
607.309;32705.283;  -11.740;38748.273
607.890;32279.797;   -9.759;38850.230
608.471;30597.596;   -8.250;37457.918
609.051;30685.979;   -9.240;36066.457
609.632;28932.844;  -12.120;35991.074
610.213;27999.049;   -9.110;37402.641
610.794;30119.936;   -8.030;38383.363
611.374;32450.580;   -8.110;40562.387
611.955;32090.225;  -13.560;38533.727
612.536;29450.799;  -11.400;36951.789
613.116;28344.064;   -8.070;37197.891
613.697;30447.906;  -10.830;38411.125
614.277;31813.773;  -11.641;38673.938
614.858;31147.307;  -13.310;37075.863
615.438;29464.166;   -7.460;35092.906
616.019;27733.971;   -7.601;33666.301
616.599;28730.865;  -12.020;34189.023
617.179;30412.891;  -11.780;36952.047
617.760;33192.352;   -8.570;39582.574
618.340;33234.789;  -11.471;38943.977
618.920;31781.221;  -11.170;37594.156
619.500;33557.301;  -11.071;37866.938
620.080;33788.656;   -7.750;37869.043
620.660;31951.225;  -12.711;36868.617
621.241;30425.936;  -10.211;36352.309
621.821;29501.363;  -10.961;35459.520
622.401;28721.684;   -7.720;35207.414
622.980;29986.668;   -8.981;35980.422
623.560;30493.301;   -9.331;37351.328
624.140;29214.521;   -9.850;34388.582
624.720;26476.594;   -7.451;32368.764
625.300;24754.734;   -9.070;32638.629
625.880;28233.586;  -12.601;34599.035
626.459;30029.850;  -11.751;36831.738
627.039;30588.527;   -9.281;38299.098
627.619;32470.906;   -8.801;38289.574
628.198;32019.697;  -12.071;37220.695
628.778;31114.064;   -9.461;37632.563
629.357;32208.908;   -8.491;38003.012
629.937;32408.566;   -9.721;38402.039
630.516;32560.926;   -9.951;37868.801
631.096;32754.162;  -11.731;35760.410
631.675;33825.262;   -8.572;35225.219
632.254;33370.816;  -11.282;35130.289
632.834;32883.762;  -13.322;35794.570
633.413;32745.729;  -10.301;35788.922
633.992;31889.617;   -8.582;34532.863
634.571;33427.816;   -8.352;33590.113
635.151;33538.281;  -11.912;34943.863
635.730;32580.510;  -10.511;35352.523
636.309;35032.129;   -7.731;35366.605
636.888;33143.191;   -9.952;36165.637
637.467;30994.248;  -11.672;37515.902
638.046;30969.402;   -8.901;39288.695
638.625;31824.500;   -7.912;38279.699
639.204;32148.150;  -10.022;37741.598
639.782;30284.350;  -12.252;38364.551
640.361;28691.600;  -10.041;36740.621
640.940;27752.340;  -11.161;34950.082
641.519;28704.955;   -9.701;34137.398
642.097;30386.648;  -11.271;35654.258
642.676;31989.625;   -8.651;35637.957
643.255;33070.496;   -8.711;36567.074
643.833;30586.738;   -9.581;37809.434
644.412;28343.508;  -13.711;37337.293
644.990;30270.549;  -11.811;37018.531
645.569;33008.805;   -9.411;36518.469
646.147;32544.592;  -10.291;36186.430
646.726;31423.258;  -12.401;36267.688
647.304;31378.322;  -10.411;36647.625
647.882;30432.623;   -9.651;39286.742
648.461;31823.389;   -9.631;39157.703
649.039;35330.188;  -11.881;35412.883
649.617;35581.012;   -9.661;34744.918
650.195;33282.555;   -9.301;35403.098
650.773;32141.369;  -10.511;35053.797
651.352;31406.840;  -11.521;33756.816
651.930;28963.627;  -12.211;31868.773
652.508;25724.914;   -9.171;33121.551
653.086;26710.846;   -9.371;33564.793
653.663;32567.795;  -13.161;34054.668
654.241;36516.246;  -13.031;35693.309
654.819;37345.621;   -9.371;36422.906
655.397;37245.313;  -10.511;38213.484
655.975;33629.262;  -10.371;39507.625
656.553;30375.281;  -10.051;39498.223
657.130;28770.525;  -10.061;40395.480
657.708;26865.123;   -9.561;39242.020
658.286;24467.225;  -11.511;38920.020
658.863;26656.619;  -10.261;40202.898
659.441;30339.764;   -7.531;39677.938
660.018;32212.438;   -9.501;40413.355
660.596;31481.615;  -13.301;39931.414
661.173;31305.215;  -11.211;39604.531
661.750;32998.965;   -9.951;39700.070
662.328;31923.047;   -9.390;39292.809
662.905;30851.441;  -11.330;38235.648
663.482;28490.432;   -9.050;36212.305
664.060;25524.010;   -8.240;35944.945
664.637;26171.781;  -10.050;35170.785
665.214;29542.408;  -11.760;34197.523
665.791;30068.193;  -10.530;34549.520
666.368;29110.072;   -9.690;35118.578
666.945;30453.852;   -9.320;36019.418
667.522;30919.518;  -11.860;36048.438
668.099;32196.375;  -10.770;36243.914
668.676;32133.164;   -6.260;35958.875
669.253;34738.938;   -7.000;37384.730
669.830;36074.504;  -10.190;36779.629
670.407;33022.230;   -9.550;35231.289
670.984;33284.031;   -9.260;35544.270
671.560;30676.252;   -9.280;35466.867
672.137;26740.799;  -11.810;34280.863
672.714;28430.824;  -11.490;34632.863
673.290;31950.145;   -7.740;35135.422
673.867;31627.078;  -10.660;36114.480
674.443;31825.447;  -12.230;36152.859
675.020;31487.646;  -10.450;35327.238
675.596;29869.314;   -9.260;35795.176
676.173;28694.307;  -10.780;35430.355
676.749;28291.867;  -13.690;33549.516
677.326;28283.473;  -11.980;32210.012
677.902;27570.908;   -8.630;32068.871
678.478;29311.852;  -10.730;32583.891
679.054;30231.348;  -10.520;32088.928
679.631;29595.854;  -11.920;30978.848
680.207;29679.719;   -7.490;33160.887
680.783;31546.279;   -9.860;35570.363
681.359;33136.469;  -13.380;36125.184
681.935;33838.781;  -12.480;35240.922
682.511;33072.000;   -7.900;34429.961
683.087;31869.932;   -7.710;34463.680
683.663;31479.836;  -11.480;34648.898
684.239;30312.719;  -14.090;34546.457
684.815;29132.305;   -7.560;35586.375
685.390;29336.580;   -9.910;35821.895
685.966;30567.041;  -11.159;35085.871
686.542;32218.350;  -11.169;34198.230
687.118;33709.465;   -5.959;32847.707
687.693;32645.236;  -10.329;32794.027
688.269;33636.523;  -12.059;33072.367
688.844;33662.285;  -10.909;33141.664
689.420;30849.977;   -8.019;33965.742
689.995;29490.014;   -8.399;34655.523
690.571;30836.912;  -10.949;33576.742
691.146;30347.160;   -9.619;32657.219
691.722;28928.957;   -8.999;32526.979
692.297;28364.383;  -11.589;33014.617
692.872;28462.275;  -11.739;34012.254
693.448;31289.746;  -11.059;34237.434
694.023;31992.668;  -10.139;34142.672
694.598;30113.389;   -9.029;34132.031
695.173;31098.928;  -13.319;34205.250
695.748;31572.396;  -10.169;32882.488
696.323;29248.016;   -8.339;32864.906
696.898;27447.949;   -8.169;33170.004
697.473;27947.531;  -12.309;32432.984
698.048;28085.244;  -10.989;31649.303
698.623;26724.637;   -9.329;30778.141
699.198;27641.814;   -9.849;31140.119
699.773;28833.273;  -12.329;31764.299
700.348;30292.332;  -10.389;31780.816
700.922;30552.496;   -9.269;32046.375
701.497;31441.438;   -9.329;32603.574
702.072;32457.770;  -10.789;34799.871
702.646;31348.174;  -10.839;35793.172
703.221;30565.762;   -9.099;35201.590
703.795;32493.008;  -10.939;34764.527
704.370;30039.535;  -12.859;34307.367
704.944;28522.648;  -11.559;33509.887
705.519;29601.221;   -7.939;31388.584
706.093;31963.830;  -10.499;31340.104
706.668;34222.512;  -11.289;32630.281
707.242;33561.684;  -11.509;32728.779
707.816;31702.717;   -9.639;32947.238
708.390;30348.301;  -11.429;33277.855
708.965;29490.428;  -11.869;33834.336
709.539;30794.527;  -11.689;33709.273
710.113;30976.688;  -10.478;33044.313
710.687;30286.393;  -10.228;31953.992
711.261;29643.707;  -13.698;30505.949
711.835;30159.258;  -13.378;30262.369
712.409;29277.891;   -9.698;31254.447
712.983;28867.127;  -11.898;32754.986
713.557;31151.145;  -15.138;34018.824
714.131;29169.658;  -14.098;34579.625
714.704;28734.828;   -9.958;33890.262
715.278;31026.631;  -10.028;33531.102
715.852;29639.467;  -11.148;33601.660
716.425;28316.729;   -9.068;33515.117
716.999;26781.578;  -10.038;33185.555
717.573;26248.770;   -9.798;33905.996
718.146;25503.486;  -12.378;35199.293
718.720;26017.914;  -11.918;35060.551
719.293;26619.318;   -8.088;34973.230
719.867;29139.957;  -10.888;36394.449
720.440;30858.961;  -11.938;36663.008
721.013;31559.285;  -12.818;35102.426
721.587;29206.111;  -10.298;33985.266
722.160;27267.742;  -10.048;33524.965
722.733;26616.992;  -12.108;32987.043
723.306;27007.305;  -10.818;33066.301
723.880;28887.617;   -8.908;33399.500
724.453;28585.180;   -9.878;33468.297
725.026;28738.482;  -11.188;33816.637
725.599;31605.836;  -11.678;32797.996
726.172;31115.072;   -9.618;33187.434
726.745;28441.018;   -8.258;35136.613
727.318;28047.695;  -12.978;35751.730
727.891;27241.402;  -12.148;35890.430
728.463;26121.164;   -8.968;34822.090
729.036;26063.979;  -10.188;32895.086
729.609;26142.217;  -11.788;31823.225
730.182;24263.916;  -11.788;31445.283
730.754;22993.914;  -10.268;32373.223
731.327;23116.109;   -9.998;33676.820
731.900;24305.693;  -12.228;33417.000
732.472;24134.686;  -13.848;31978.498
733.045;23227.922;   -8.698;30368.777
733.617;22982.152;  -10.607;30574.215
734.190;24992.896;  -11.507;31280.975
734.762;25935.277;  -13.647;31674.412
735.334;27369.838;   -9.767;31247.291
735.907;27843.371;   -9.897;29876.211
736.479;27581.475;  -11.637;29808.488
737.051;28405.344;   -9.567;30233.547
737.623;27585.490;   -8.187;31469.086
738.195;26190.725;  -11.187;31784.225
738.768;25058.238;  -12.337;32120.523
739.340;23514.990;  -12.227;32094.342
739.912;22674.486;  -11.057;31312.680
740.484;22654.711;  -10.207;31946.238
741.056;22399.988;  -10.047;32984.059
741.628;23413.137;  -13.627;33897.715
742.199;24280.408;   -7.177;33213.016
742.771;26468.922;  -10.797;31369.113
743.343;27240.307;  -11.997;31865.473
743.915;27060.496;  -12.867;32388.631
744.487;24540.648;   -7.617;31079.568
745.058;21624.479;   -9.557;30570.107
745.630;22719.580;   -9.877;29970.127
746.201;24318.852;  -14.177;29186.766
746.773;24850.842;   -9.237;28805.723
747.344;22888.529;   -9.847;29591.223
747.916;21195.488;  -11.657;31412.201
748.487;22269.865;  -10.587;32194.898
749.059;24128.090;   -8.707;32533.719
749.630;24484.451;  -10.537;32158.518
750.201;23815.395;  -11.687;30855.395
750.773;22452.164;  -11.647;28622.555
751.344;22257.135;   -7.147;28405.732
751.915;24537.336;   -9.757;28461.551
752.486;25701.533;  -12.427;27842.850
753.057;24495.195;  -12.227;27845.008
753.628;24503.703;  -10.417;27728.107
754.199;24129.059;  -11.767;27381.086
754.770;23609.313;  -11.187;25882.203
755.341;22359.037;  -10.507;25886.184
755.912;20741.086;   -9.387;26050.861
756.483;19313.553;  -10.647;26798.779
757.054;19746.986;  -11.837;27048.238
757.625;19704.551;  -12.716;26294.838
758.195;19476.924;   -9.666;26142.076
758.766;19725.014;   -8.656;26392.234
759.337;19254.609;  -12.856;26334.594
759.907;19043.172;  -13.366;27579.652
760.478;18769.977;   -8.576;28352.770
761.048;19823.992;  -10.526;27325.088
761.619;19998.391;  -11.116;26460.428
762.189;18673.221;  -12.136;26029.826
762.760;18267.832;   -9.456;26430.145
763.330;18574.955;   -7.136;26670.902
763.900;18626.242;  -11.786;26603.021
764.471;18268.541;  -11.546;25542.740
765.041;17450.164;   -8.096;24358.459
765.611;16761.924;   -8.876;23991.297
766.181;16774.824;  -12.196;24470.236
766.751;16607.563;  -11.636;24845.975
767.321;17622.631;  -10.156;24533.633
767.891;17025.164;  -11.766;24916.492
768.461;17241.107;  -14.936;24776.771
769.031;18273.166;  -12.356;24757.988
769.601;18896.770;   -7.526;24181.088
770.171;18676.963;  -10.766;23670.387
770.741;17877.611;  -13.176;22960.045
771.311;17386.545;  -10.616;22917.523
771.880;17685.715;   -9.576;23562.941
772.450;17345.250;  -10.336;24216.500
773.020;16975.740;  -13.516;24140.398
773.589;17627.885;  -13.466;24414.857
774.159;17502.762;   -8.686;23858.717
774.729;16089.094;   -9.476;22942.135
775.298;14263.206;  -13.666;22324.033
775.867;13923.248;  -11.716;21140.313
776.437;14008.069;   -9.906;20838.092
777.006;13309.661;  -12.166;20599.510
777.576;12778.262;  -12.356;20508.809
778.145;12693.544;  -11.646;20732.947
778.714;13139.304;   -8.226;21062.465
779.283;14186.532;   -9.556;20949.664
779.853;14848.679;  -14.116;20508.623
780.422;14306.890;  -11.506;20649.082
780.991;13887.530;   -9.556;21527.520
781.560;13598.239;   -9.095;22632.658
782.129;13462.496;  -12.135;23048.277
782.698;13303.672;  -10.865;23438.555
783.267;12962.196;   -9.335;23267.734
783.836;13088.964;  -11.045;22415.133
784.404;13778.898;  -13.865;20443.152
784.973;13000.958;  -13.095;19699.150
785.542;11603.111;  -11.575;19763.828
786.111;10939.805;   -9.705;20341.408
786.679;11673.563;  -12.105;20207.967
787.248;11984.858;  -12.455;19516.465
787.817;11720.526;  -11.535;18900.363
788.385;11830.805;   -9.765;17879.121
788.954;11769.449;  -14.005;17658.301
789.522;11221.893;  -11.955;17788.879
790.090;11476.127;  -10.135;18118.277
790.659;12378.754;  -10.975;18338.736
791.227;12302.193;  -13.375;18508.615
791.795;11756.077;  -12.375;17898.254
792.364;11222.410;  -10.725;17295.133
792.932;11372.759;   -9.715;16822.051
793.500;11483.011;  -12.675;17040.148
794.068;11229.985;  -13.495;17179.787
794.636;10073.984;  -10.885;16664.246
795.204; 9082.188;  -11.045;16524.545
795.772; 9791.774;  -13.175;17274.564
796.340;10933.729;  -12.445;17891.002
796.908;10741.327;   -9.735;17648.561
797.476;11161.616;   -9.815;17064.080
798.044;12029.148;  -13.985;16672.777
798.612;11832.793;  -13.115;17023.996
799.180;10499.702;  -10.185;16561.615
799.747; 9455.061;   -9.055;15962.773
800.315; 8864.142;  -12.385;15296.992
800.883; 9141.149;  -15.035;14801.771
801.450; 9435.561;  -10.365;14534.430
802.018; 9519.383;   -9.855;14173.248
802.585; 9663.532;  -11.905;14029.547
803.153; 9195.582;  -11.585;13836.846
803.720; 8561.648;   -9.095;13567.324
804.287; 8633.485;   -9.135;13360.622
804.855; 8953.720;  -11.604;13681.981
805.422; 9076.988;  -11.794;13536.560
805.989; 8958.092;  -10.734;13355.958
806.556; 8527.089;  -10.444;13747.896
807.124; 8385.469;  -12.764;13987.376
807.691; 8959.298;  -12.964;14038.674
808.258; 9373.751;  -11.134;14120.152
808.825; 9599.348;   -9.854;13860.111
809.392; 9301.115;  -10.504;13268.790
809.959; 8830.253;  -13.054;12680.389
810.526; 8647.037;   -8.294;12427.308
811.093; 8329.104;   -8.394;12030.105
811.659; 7559.540;  -12.304;11653.664
812.226; 7305.312;  -13.944;11637.183
812.793; 7786.772;  -10.484;11611.521
813.360; 7910.669;  -10.144;11885.181
813.926; 7188.833;  -11.684;12770.539
814.493; 6603.931;  -13.644;12677.638
815.060; 6484.263;   -9.724;11974.336
815.626; 6801.644;   -9.854;11594.715
816.193; 6846.393;  -13.254;11579.474
816.759; 6840.790;  -13.204;11666.972
817.325; 6607.064;   -9.434;11325.530
817.892; 6292.000;  -10.134;11105.369
818.458; 6241.541;  -13.474;10843.928
819.024; 6259.318;  -11.854;10714.406
819.591; 6551.917;  -10.244;10469.165
820.157; 6630.386;  -10.704;10235.523
820.723; 6880.833;  -12.324;10847.563
821.289; 7311.254;   -9.444;11040.980
821.855; 7387.809;   -8.374;10357.100
822.421; 6978.365;  -10.234; 9978.918
822.987; 6693.743;  -13.294; 9754.177
823.553; 6532.561;  -10.884;10065.755
824.119; 6094.982;   -8.884;10036.294
824.685; 5898.410;   -6.784;10029.192
825.251; 5827.717;  -12.004;10199.230
825.816; 5924.759;  -11.474; 9820.189
826.382; 5704.395;   -9.174; 9297.248
826.948; 5438.358;   -9.214; 9381.347
827.513; 5216.345;  -10.774; 9450.726
828.079; 5165.326;  -11.924; 9472.444
828.645; 5279.351;  -10.543; 9292.643
829.210; 5508.481;  -10.533; 9065.341
829.776; 5515.707;  -10.753; 9132.620
830.341; 5397.540;  -10.173; 9092.878
830.906; 5482.426;  -10.743; 9078.557
831.472; 5349.497;  -11.113; 8534.535
832.037; 4861.282;  -10.603; 8677.874
832.602; 4803.313;  -13.323; 8628.692
833.167; 5173.652;  -10.823; 8879.031
833.733; 5150.996;  -10.113; 9189.790
834.298; 4878.602;  -13.583; 9052.608
834.863; 4744.230;  -12.703; 8895.087
835.428; 4623.849;  -10.523; 8824.266
835.993; 4573.417;   -6.963; 8845.385
836.558; 4664.351;  -10.763; 8888.563
837.123; 4780.154;   -9.903; 8966.582
837.688; 4618.410;   -9.913; 8617.860
838.253; 4474.497;  -10.283; 8590.699
838.817; 4611.406;  -12.963; 8443.797
839.382; 4792.069;  -14.243; 8799.356
839.947; 4691.168;  -10.733; 8810.595
840.511; 4763.131;   -9.383; 8796.394
841.076; 4771.356;  -12.563; 8347.231
841.641; 4564.392;  -12.953; 8224.330
842.205; 4284.286;   -7.043; 8223.349
842.770; 4243.795;   -8.163; 8622.107
843.334; 4281.493;  -12.503; 8410.386
843.898; 4244.656;  -11.693; 8337.465
844.463; 4141.936;  -10.203; 8506.283
845.027; 4055.971;   -9.533; 8280.962
845.591; 4098.551;  -13.443; 8231.141
846.156; 4005.710;  -13.143; 7969.179
846.720; 3809.372;   -9.433; 7768.278
847.284; 3523.266;  -11.033; 7630.957
847.848; 3377.460;  -10.403; 7472.395
848.412; 3395.097;  -11.553; 7437.394
848.976; 3583.439;   -8.393; 7674.592
849.540; 3626.553;   -8.713; 7836.011
850.104; 3606.163;  -12.463; 7913.669
850.668; 3747.509;  -12.973; 7694.508
851.232; 3780.658;  -10.793; 7756.887
851.796; 3695.515;  -10.662; 7926.545
852.359; 3727.306;  -13.082; 7827.844
852.923; 3475.943;  -12.192; 7641.163
853.487; 3396.470;  -11.912; 7342.501
854.050; 3557.708;  -10.892; 7042.820
854.614; 3544.926;  -13.992; 7151.338
855.177; 3429.141;  -11.732; 7105.077
855.741; 3347.912;   -8.962; 6989.675
856.304; 3234.953;   -9.442; 6596.634
856.868; 2979.640;  -14.192; 6356.272
857.431; 2761.760;  -12.702; 6468.571
857.995; 2803.607;   -9.942; 6373.210
858.558; 2841.801;   -9.112; 6324.448
859.121; 2665.593;  -12.932; 6408.327
859.684; 2628.312;  -13.442; 6347.886
860.247; 3066.875;  -10.632; 6321.264
860.810; 3396.761;  -11.272; 6301.903
861.374; 3405.170;   -9.832; 6607.881
861.937; 3378.110;  -11.762; 6408.200
862.500; 3226.865;   -9.722; 6572.639
863.062; 2908.029;  -10.512; 6387.297
863.625; 2796.243;  -11.232; 6190.836
864.188; 2800.109;  -14.112; 5807.254
864.751; 2806.123;  -11.302; 5682.413
865.314; 2924.830;  -10.112; 5547.492
865.876; 2954.302;  -12.182; 5500.150
866.439; 2863.976;  -10.722; 5415.909
867.002; 2703.477;   -9.252; 5501.567
867.564; 2590.183;   -9.572; 5413.946
868.127; 2456.059;  -13.142; 5160.325
868.689; 2166.719;  -12.902; 5133.183
869.252; 2037.131;   -9.732; 5252.382
869.814; 2057.587;   -9.432; 5297.141
870.377; 2163.504;  -11.552; 5390.919
870.939; 2149.120;   -9.052; 5599.898
871.501; 2080.491;  -10.982; 5248.336
872.063; 2115.397;  -12.292; 4854.235
872.626; 2125.536;  -14.912; 4817.074
873.188; 2123.377;  -13.112; 4987.732
873.750; 2077.791;  -13.442; 4868.651
874.312; 2178.877;   -9.402; 4779.330
874.874; 2427.779;  -11.062; 4866.348
875.436; 2437.685;  -13.931; 4718.887
875.998; 2180.257;   -9.561; 4660.005
876.560; 1957.783;  -11.321; 4462.964
877.122; 1755.719;  -12.221; 4145.042
877.683; 1410.586;  -12.191; 4056.481
878.245; 1152.331;  -12.101; 3950.740
878.807; 1053.660;   -8.971; 4058.958
879.369; 1080.580;  -12.071; 3954.677
879.930; 1157.470;  -14.621; 3941.495
880.492; 1164.476;  -10.311; 4067.014
881.053; 1122.170;  -10.901; 3859.633
881.615; 1153.359;  -14.411; 3776.071
882.176; 1223.214;  -13.761; 3734.750
882.738; 1277.910;   -9.181; 3678.489
883.299; 1276.992;  -11.791; 3405.407
883.860; 1233.270;  -13.121; 3351.106
884.422; 1151.894;  -11.211; 3394.044
884.983; 1090.688;  -10.091; 3166.443
885.544; 1079.347;   -8.461; 3189.802
886.105; 1037.471;  -12.361; 3160.360
886.666;  972.831;  -14.141; 3093.059
887.227;  948.704;  -11.361; 2941.957
887.788;  965.990;  -11.401; 2974.836
888.349;  926.813;  -13.791; 2721.214
888.910;  837.808;  -13.191; 2696.493
889.471;  742.198;   -9.881; 2560.172
890.032;  674.475;   -9.881; 2558.190
890.593;  676.032;  -10.371; 2567.669
891.153;  677.842;  -13.301; 2460.307
891.714;  619.780;  -11.431; 2372.046
892.275;  572.771;  -11.291; 2309.505
892.835;  559.976;  -11.471; 2382.543
893.396;  549.880;  -11.541; 2295.502
893.956;  546.422;  -11.181; 2162.420
894.517;  535.939;  -11.741; 2125.439
895.077;  491.641;  -11.671; 2086.978
895.638;  442.815;  -11.311; 2126.316
896.198;  424.547;   -9.831; 1838.275
896.758;  423.123;   -8.421; 1892.813
897.319;  417.919;  -12.351; 1792.232
897.879;  399.428;  -13.511; 1762.751
898.439;  373.781;  -12.001; 1661.149
898.999;  354.622;  -10.180; 1781.468
899.559;  342.532;  -12.030; 1703.347
900.119;  334.890;  -15.710; 1537.525
900.679;  313.575;   -8.900; 1638.384
901.239;  285.574;   -8.340; 1527.902
901.799;  271.713;  -13.910; 1456.441
902.359;  264.153;  -13.460; 1357.140
902.919;  257.871;  -11.490; 1331.118
903.479;  254.965;  -12.110; 1317.257
904.038;  246.727;  -11.720; 1262.595
904.598;  231.688;  -13.610; 1152.034
905.158;  219.982;  -11.040; 1240.893
905.717;  214.817;  -10.900; 1233.691
906.277;  210.310;  -15.080; 1217.330
906.836;  207.975;  -13.380; 1222.408
907.396;  205.483;  -10.780; 1193.047
907.955;  198.217;   -8.500; 1182.526
908.515;  191.251;  -12.760; 1099.364
909.074;  187.488;  -11.900; 1092.863
909.633;  184.448;   -8.950; 1069.121
910.192;  181.251;   -8.770; 1196.460
910.752;  176.806;  -12.390; 1029.960
911.311;  173.313;  -13.680; 1009.780
911.870;  169.111;  -12.370;  971.460
912.429;  165.417;  -10.900; 1094.080
912.988;  163.079;  -11.690; 1081.060
913.547;  158.684;  -13.240;  940.380
914.106;  159.037;  -11.990;  999.420
914.665;  157.953;   -9.990;  984.020
915.224;  156.483;  -12.880; 1035.760
915.782;  153.850;  -12.350;  922.560
916.341;  150.764;   -9.110; 1049.840
916.900;  146.713;   -9.270;  925.260
917.458;  144.543;  -13.240;  884.220
918.017;  144.674;  -13.550;  942.600
918.576;  144.158;  -12.320;  904.440
919.134;  144.562;  -11.490;  837.980
919.693;  143.728;  -13.670;  893.060
920.251;  143.489;  -15.470;  876.500
920.809;  141.646;  -11.290;  839.580
921.368;  143.147;  -10.210;  885.360
921.926;  142.438;  -12.140;  842.940
922.484;  142.178;  -13.080;  903.360
923.042;  140.776;  -11.720;  880.340
923.601;  142.218;   -7.480;  998.680
924.159;  141.465;  -11.570;  935.560
924.717;  140.354;  -13.840;  841.080
925.275;  142.321;  -10.640;  903.240
925.833;  140.496;  -11.540;  779.320
926.391;  141.253;  -12.960;  938.380
926.949;  141.631;  -14.130;  857.680
927.506;  141.294;  -11.750;  903.500
928.064;  140.220;  -10.250;  877.580
928.622;  139.342;  -13.030;  880.100
929.180;  140.489;  -13.400;  814.180
929.737;  141.552;  -10.700;  808.540
930.295;  143.819;  -10.070;  928.480
930.853;  143.382;  -11.960;  849.100
931.410;  143.094;  -13.120;  821.120
931.968;  143.837;  -10.770;  940.660
932.525;  145.292;  -10.680;  909.380
933.082;  147.585;  -13.130;  811.440
933.640;  153.888;  -13.210;  925.900
934.197;  153.744;  -11.060;  886.360
934.754;  154.241;   -9.580;  897.780
935.312;  154.728;  -14.000;  863.340
935.869;  158.123;  -10.710; 1012.980
936.426;  156.240;   -9.860;  872.800
936.983;  155.263;   -9.710;  889.020
937.540;  153.224;  -13.990;  838.280
938.097;  153.086;  -14.040;  940.120
938.654;  155.888;  -10.310;  898.860
939.211;  155.865;  -10.560;  952.480
939.768;  155.657;  -13.900;  915.420
940.324;  156.396;  -14.760;  904.200
940.881;  160.852;  -10.370;  878.500
941.438;  167.536;   -8.260; 1021.200
941.995;  169.231;  -12.540;  992.560
942.551;  166.414;  -14.670;  875.620
943.108;  166.480;  -10.450;  937.920
943.664;  167.359;  -10.750;  869.340
944.221;  172.159;  -11.550; 1088.140
944.777;  174.363;  -14.770;  869.680
945.334;  172.918;  -12.820;  884.840
945.890;  172.030;  -10.130;  946.480
946.446;  169.081;  -13.470;  947.020
947.003;  169.003;  -12.120;  964.940
947.559;  169.157;   -9.980; 1063.040
948.115;  165.184;   -9.080; 1026.540
948.671;  161.840;  -10.830;  967.300
949.227;  160.982;  -12.440;  859.560
949.783;  160.462;  -12.910;  858.900
950.339;  162.149;  -10.270;  991.000
950.895;  163.388;  -13.630; 1023.840
951.451;  163.144;  -15.100;  925.280
952.007;  162.258;  -11.330;  998.540
952.563;  160.583;  -10.580;  937.780
953.118;  156.122;  -13.440;  904.940
953.674;  152.926;  -12.710;  935.780
954.230;  155.242;  -10.350;  949.640
954.785;  158.547;   -9.190;  936.640
955.341;  160.071;  -11.200;  998.160
955.897;  156.629;  -16.560;  834.660
956.452;  155.198;  -12.570;  953.840
957.008;  152.526;   -7.970; 1083.640
957.563;  151.306;  -11.940; 1009.540
958.118;  149.810;  -13.450;  877.700
958.674;  149.579;  -12.030;  946.780
959.229;  148.678;   -9.410; 1013.980
959.784;  147.516;  -12.000;  832.400
960.339;  145.316;  -14.780; 1001.280
960.894;  139.222;   -9.860;  963.760
961.449;  133.796;   -9.970;  859.960
962.004;  131.641;  -10.900; 1212.840
962.559;  125.638;  -13.150;  860.140
963.114;  124.395;  -13.740;  742.480
963.669;  125.685;   -9.820;  915.500
964.224;  124.786;  -13.890;  874.340
964.779;  124.696;  -12.600;  828.420
965.334;  126.085;  -10.950; 1017.860
965.888;  123.945;  -11.170;  875.360
966.443;  124.812;  -12.540;  972.380
966.998;  124.646;  -15.780;  819.460
967.552;  124.678;   -9.760;  908.380
968.107;  118.336;   -9.060;  868.300
968.661;  117.366;  -11.950;  922.440
969.216;  116.936;  -12.800;  856.280
969.770;  117.590;  -11.210;  917.200
970.324;  114.007;  -11.610;  923.140
970.879;  111.896;  -11.370;  947.180
971.433;  111.165;  -12.540;  952.720
971.987;  109.273;  -11.320;  895.340
972.541;  108.416;  -10.720;  917.100
973.095;  109.551;   -9.680; 1009.460
973.649;  109.657;  -11.440;  809.480
974.203;  108.366;  -11.210;  829.040
974.757;  108.523;  -10.240;  855.220
975.311;  108.344;  -13.720;  872.600
975.865;  109.331;  -13.770;  881.820
976.419;  107.381;  -11.690;  857.400
976.973;  107.616;   -9.510;  849.620
977.526;  107.795;  -12.620;  949.920
978.080;  104.678;  -12.010;  796.780
978.634;  103.393;  -10.170;  921.320
979.187;   99.696;   -9.020;  905.400
979.741;   99.270;   -9.820; 1018.380
980.294;   94.675;  -14.870;  789.160
980.848;   90.889;  -12.380;  717.220
981.401;   90.369;  -10.350;  816.540
981.955;   89.711;  -13.720;  844.300
982.508;   87.424;  -11.490;  746.340
983.061;   87.689;  -10.000;  915.260
983.615;   85.594;  -11.480;  798.800
984.168;   85.735;  -13.220;  770.080
984.721;   86.011;  -13.960;  880.760
985.274;   83.965;  -10.870;  867.500
985.827;   81.723;   -9.790;  834.220
986.380;   81.029;  -13.120;  721.340
986.933;   81.653;  -12.450;  864.800
987.486;   81.208;  -10.210;  861.920
988.039;   79.658;   -8.430;  863.100
988.591;   77.677;  -10.520;  893.260
989.144;   74.019;  -14.860;  737.260
989.697;   71.745;  -13.080;  758.740
990.250;   71.348;  -10.150;  858.100
990.802;   69.060;  -13.430;  755.860
991.355;   68.588;  -12.750;  974.880
991.907;   66.262;  -12.040;  864.320
992.460;   63.937;  -11.330;  753.760
993.012;   62.286;  -13.610;  749.540
993.565;   61.720;  -13.460;  711.360
994.117;   63.359;   -9.360;  950.780
994.669;   60.090;  -11.300;  701.320
995.221;   60.387;  -13.540;  791.920
995.774;   59.856;  -13.430;  787.580
996.326;   57.956;  -12.520;  740.220
996.878;   58.631;  -10.950;  838.420
997.430;   56.864;  -14.300;  699.860
997.982;   54.977;  -13.760;  750.140
998.534;   54.381;  -11.530;  739.060
999.086;   53.349;  -10.310;  738.220
999.638;   52.532;  -12.530;  661.380
1000.190;   51.656;  -11.840;  699.320
1000.741;   51.687;  -10.260;  742.700
1001.293;   50.640;   -8.860;  686.020
1001.845;   49.328;  -13.700;  676.640
1002.396;   49.926;  -12.100;  743.400
1002.948;   49.162;  -12.760;  737.400
1003.500;   47.768;  -10.380;  723.780
1004.051;   48.916;  -11.900;  907.580
1004.603;   46.868;  -12.250;  791.820
1005.154;   43.589;  -13.210;  608.980
1005.705;   43.040;  -10.950;  723.960
1006.257;   42.849;  -13.880;  707.220
1006.808;   42.331;  -12.840;  685.460
1007.359;   41.470;  -10.570;  763.240
1007.910;   39.802;   -9.620;  646.640
1008.461;   40.307;  -13.630;  732.940
1009.013;   39.259;  -17.200;  588.340
1009.564;   40.641;  -10.200;  793.520
1010.115;   38.148;  -12.570;  597.040
1010.665;   37.399;  -15.150;  602.160
1011.216;   38.908;  -14.480;  667.920
1011.767;   37.614;  -11.340;  697.920
1012.318;   37.948;   -9.780;  736.980
1012.869;   36.473;  -12.380;  679.000
1013.419;   36.431;  -15.560;  603.120
1013.970;   36.849;  -11.010;  666.640
1014.521;   35.384;  -11.610;  620.620
1015.071;   36.257;  -13.450;  670.380
1015.622;   36.053;  -13.870;  635.460
1016.172;   35.101;  -11.610;  596.820
1016.723;   34.337;  -12.120;  614.380
1017.273;   34.474;  -13.620;  604.160
1017.823;   35.209;  -14.140;  650.340
1018.374;   34.052;  -12.800;  611.760
1018.924;   34.061;  -12.340;  716.880
1019.474;   34.633;  -11.410;  718.880
1020.024;   32.514;  -14.770;  657.580
1020.574;   33.529;   -9.780;  726.160
1021.124;   33.444;   -8.560;  673.580
1021.674;   31.390;  -15.190;  559.120
1022.224;   33.946;  -13.530;  708.940
1022.774;   33.163;  -13.280;  668.820
1023.324;   33.442;  -10.690;  753.520
1023.874;   34.195;  -10.240;  875.760
1024.423;   31.462;  -12.540;  613.700
1024.973;   31.034;  -10.010;  610.760
1025.523;   30.584;  -10.550;  620.960
1026.072;   30.004;  -13.560;  606.420
1026.622;   30.624;  -15.120;  675.740
1027.172;   31.021;  -11.260;  715.660
1027.721;   30.117;  -11.410;  601.220
1028.270;   29.888;  -13.530;  663.400
1028.820;   30.743;  -13.680;  638.080
1029.369;   30.184;  -13.520;  612.700
1029.918;   30.239;  -10.980;  649.840
1030.468;   29.350;  -13.530;  564.780
1031.017;   29.564;  -13.170;  634.800
1031.566;   29.215;  -12.200;  608.900
1032.115;   29.161;   -9.960;  694.500
1032.664;   27.983;  -13.210;  596.480
1033.213;   29.022;  -12.500;  735.420
1033.762;   28.317;  -11.910;  635.620
1034.311;   28.300;   -9.640;  677.220
1034.860;   28.364;  -13.310;  691.000
1035.408;   27.653;  -11.830;  722.720
1035.957;   28.540;  -12.000;  719.540
1036.506;   26.564;  -11.690;  530.800
1037.055;   29.027;  -10.990;  844.320
1037.603;   27.342;  -15.120;  664.000
1038.152;   25.907;  -12.450;  534.760
1038.700;   26.325;  -10.560;  585.740
1039.249;   25.910;  -11.080;  681.220
1039.797;   26.076;  -12.540;  633.360
1040.345;   26.133;  -11.920;  705.420
1040.894;   25.515;  -11.410;  625.300
1041.442;   25.486;  -14.320;  632.200
1041.990;   24.880;  -16.240;  559.160
1042.538;   24.690;  -11.680;  536.180
1043.087;   24.535;  -10.760;  570.860
1043.635;   26.135;  -11.850;  670.500
1044.183;   24.124;  -15.480;  586.400
1044.731;   24.414;  -11.770;  576.000
1045.279;   24.156;  -13.090;  674.920
1045.827;   26.641;  -12.440;  892.400
1046.374;   23.286;  -13.840;  515.420
1046.922;   23.169;  -13.220;  590.580
1047.470;   23.917;  -10.230;  691.300
1048.018;   24.047;  -14.590;  647.960
1048.565;   25.233;  -12.050;  708.600
1049.113;   22.903;  -11.650;  557.000
1049.660;   22.645;  -10.510;  629.660
1050.208;   22.734;  -13.310;  675.640
1050.755;   22.571;  -15.900;  606.580
1051.303;   23.701;  -11.430;  686.820
1051.850;   22.466;   -8.480;  635.120
1052.397;   20.729;  -15.010;  473.960
1052.945;   21.802;  -13.960;  617.760
1053.492;   23.183;  -13.150;  741.840
1054.039;   22.454;   -9.630;  720.180
1054.586;   21.778;  -13.680;  557.240
1055.133;   22.532;  -14.570;  693.140
1055.680;   22.512;  -13.820;  646.620
1056.227;   21.595;  -11.730;  542.780
1056.774;   23.158;  -12.480;  794.980
1057.321;   20.912;  -13.930;  523.260
1057.868;   21.154;  -11.690;  651.320
1058.415;   20.045;   -9.520;  651.980
1058.961;   20.600;  -13.160;  678.940
1059.508;   21.239;  -12.920;  643.820
1060.055;   19.462;  -11.920;  581.780
1060.601;   20.795;  -11.500;  624.300
1061.148;   19.855;  -14.330;  616.820
1061.694;   19.611;  -16.870;  592.580
1062.241;   20.260;  -10.330;  596.320
1062.787;   20.267;  -10.620;  663.140
1063.334;   21.063;  -10.110;  808.560
1063.880;   19.545;  -13.400;  668.360
1064.426;   19.993;  -10.680;  706.820
1064.972;   18.580;   -9.920;  601.340
1065.518;   17.624;  -10.980;  566.640
1066.065;   19.356;  -14.890;  624.460
1066.611;   17.783;  -12.870;  598.800
1067.157;   18.892;  -12.950;  641.860
1067.703;   19.217;  -13.540;  668.480
1068.249;   18.266;  -13.540;  605.220
1068.794;   18.873;  -12.600;  626.880
1069.340;   17.887;  -10.620;  578.960
1069.886;   18.084;  -12.830;  590.700
1070.432;   16.496;  -14.870;  541.720
1070.977;   16.763;  -11.980;  601.080
1071.523;   16.668;   -8.200;  573.060
1072.068;   17.170;  -12.330;  582.000
1072.614;   17.114;  -16.370;  527.760
1073.160;   17.959;  -11.100;  687.040
1073.705;   16.620;  -10.480;  572.520
1074.250;   16.822;  -14.520;  559.900
1074.796;   18.255;  -11.460;  655.160
1075.341;   17.523;  -11.950;  664.100
1075.886;   17.112;  -11.460;  594.240
1076.431;   16.633;  -13.770;  649.880
1076.976;   16.834;  -12.680;  639.220
1077.521;   15.670;  -13.170;  583.080
1078.067;   14.546;  -10.860;  579.400
1078.612;   15.596;  -13.920;  661.620
1079.156;   15.283;  -13.880;  601.540
1079.701;   15.396;  -13.120;  693.260
1080.246;   16.866;   -9.940;  696.300
1080.791;   15.796;  -14.740;  625.020
1081.336;   16.263;  -13.750;  659.320
1081.880;   15.559;  -13.400;  649.680
1082.425;   14.742;  -12.220;  573.480
1082.970;   17.327;  -11.610;  717.040
1083.514;   14.429;  -13.580;  597.000
1084.059;   14.009;  -12.810;  586.720
1084.603;   13.566;  -12.320;  565.840
1085.147;   14.044;  -13.190;  645.220
1085.692;   15.267;  -12.480;  716.800
1086.236;   12.779;  -13.020;  503.140
1086.780;   15.021;   -9.190;  751.440
1087.325;   14.624;  -12.480;  654.620
1087.869;   14.273;  -12.450;  610.700
1088.413;   14.507;  -12.240;  705.040
1088.957;   12.506;   -9.020;  543.400
1089.501;   14.035;  -10.320;  766.640
1090.045;   14.550;  -12.720;  726.480
1090.589;   11.693;  -13.690;  569.920
1091.133;   12.644;  -10.020;  673.340
1091.676;   13.359;  -12.330;  591.940
1092.220;   13.055;  -14.970;  600.920
1092.764;   13.944;  -12.430;  706.960
1093.307;   12.860;   -9.800;  673.780
1093.851;   12.062;  -14.970;  556.540
1094.395;   13.009;  -15.310;  683.140
1094.938;   12.237;  -10.370;  632.520
1095.482;   12.335;  -11.050;  559.800
1096.025;   12.122;  -11.840;  710.880
1096.568;   12.880;  -12.840;  779.280
1097.112;   10.240;  -14.700;  508.180
1097.655;   11.881;   -8.720;  603.000
1098.198;    9.680;  -13.610;  600.180
1098.741;   11.488;  -13.350;  612.860
1099.285;   11.912;  -11.230;  657.300
1099.828;   10.215;  -11.840;  439.400
1100.371;   10.793;  -10.840;  608.160
1100.914;   11.325;  -14.190;  682.660
1101.457;   10.689;  -11.240;  679.900
1101.999;    9.936;  -11.270;  584.680
1102.542;   11.028;  -11.480;  641.440
1103.085;   10.636;  -11.750;  658.500
1103.628;   11.650;  -11.400;  762.060
1104.170;    9.853;  -10.490;  588.280
1104.713;   10.439;  -10.600;  646.700
1105.256;    9.332;  -14.360;  557.440
1105.798;    9.088;  -13.210;  499.980
1106.341;   11.174;  -10.270;  728.900
1106.883;    9.598;  -12.200;  521.340
1107.425;   10.260;  -13.110;  668.180
1107.968;    9.914;  -12.840;  612.380
1108.510;   10.112;   -6.480;  684.960
1109.052;    7.824;  -13.940;  612.620
1109.594;    8.594;  -13.690;  554.440
1110.136;    9.539;  -11.880;  643.220
1110.679;    8.067;   -9.500;  633.080
1111.221;    9.108;  -14.160;  604.460
1111.763;    8.618;  -13.980;  559.220
1112.304;    8.192;  -13.880;  547.140
1112.846;    8.490;  -12.210;  666.240
1113.388;   10.937;  -11.390;  942.180
1113.930;    8.532;  -14.540;  694.200
1114.472;    7.970;  -12.640;  606.540
1115.013;    7.090;  -11.620;  551.280
1115.555;    6.963;  -13.640;  587.100
1116.097;    6.422;  -15.380;  579.480
1116.638;    7.988;  -12.640;  684.600
1117.180;    8.173;   -9.850;  667.740
1117.721;    7.990;  -13.690;  568.580
1118.262;    8.934;  -12.680;  677.960
1118.804;    8.281;  -12.530;  637.340
1119.345;    6.701;  -11.690;  578.400
1119.886;    7.341;  -13.380;  704.040
1120.427;    6.453;  -14.070;  589.020
1120.969;    5.843;  -13.500;  597.920
1121.510;    5.901;  -11.480;  563.060
1122.051;    7.040;  -12.830;  723.580
1122.592;    6.272;  -14.290;  655.420
1123.133;    5.863;  -12.400;  547.940
1123.673;    7.506;  -10.130;  706.480
1124.214;    6.476;  -12.930;  612.460
1124.755;    7.445;  -14.380;  639.460
1125.296;    6.702;  -14.000;  627.320
1125.836;    7.019;  -10.070;  691.500
1126.377;    5.587;  -12.640;  599.660
1126.918;    6.622;  -12.960;  614.980
1127.458;    6.008;  -13.350;  622.220
1127.999;    5.837;  -10.750;  656.980
1128.539;    6.711;  -12.350;  694.240
1129.079;    5.343;  -14.860;  632.720
1129.620;    3.979;  -13.840;  558.100
1130.160;    4.149;  -12.330;  539.480
1130.700;    6.127;  -14.530;  640.840
1131.240;    6.612;  -12.530;  643.700
1131.781;    5.464;  -14.450;  619.680
1132.321;    5.209;   -9.790;  599.120
1132.861;    3.683;  -14.860;  564.200
1133.401;    3.955;  -14.290;  593.940
1133.941;    5.668;  -11.750;  626.280
1134.481;    3.920;   -9.920;  597.580
1135.020;    4.327;  -12.290;  609.160
1135.560;    5.137;  -11.650;  674.940
1136.100;    3.845;  -16.270;  501.160
1136.640;    3.597;  -10.890;  510.480
1137.179;    3.691;  -14.180;  537.960
1137.719;    4.140;  -16.250;  605.400
1138.258;    4.099;  -14.230;  587.360
1138.798;    4.439;   -9.090;  663.780
1139.337;    3.256;  -15.130;  482.840
1139.877;    4.209;  -13.680;  642.360
1140.416;    6.064;  -11.320;  878.060
1140.955;    2.158;  -10.860;  535.380
1141.494;    4.019;  -12.920;  669.280
1142.034;    3.389;  -13.930;  583.520
1142.573;    4.235;  -11.440;  646.280
1143.112;    3.062;  -12.000;  553.480
1143.651;    2.760;  -13.670;  536.480
1144.190;    4.463;  -12.730;  691.640
1144.729;    3.060;  -14.560;  607.420
1145.267;    2.902;  -11.830;  584.900
1145.806;    4.092;  -12.230;  637.040
1146.345;    3.264;  -14.130;  635.020
1146.884;    2.625;  -11.590;  622.500
1147.422;    1.656;  -12.550;  533.060
1147.961;    3.852;  -11.180;  708.460
1148.500;    3.605;  -11.510;  669.720
1149.038;    3.819;  -11.640;  632.500
1149.577;    2.966;  -10.130;  698.640
1150.115;    0.757;  -13.970;  452.280
1150.653;    2.647;  -14.520;  607.340
1151.192;    2.847;  -12.810;  552.920
1151.730;    1.937;   -9.100;  652.560
1152.268;    1.764;  -12.220;  589.520
1152.806;    1.657;  -14.140;  571.180
1153.344;    0.347;  -12.350;  577.640
1153.882;    1.662;   -8.980;  600.060
1154.421;    0.162;  -15.190;  470.620
1154.958;    0.912;  -15.210;  595.240
1155.496;    2.356;  -12.850;  645.280
1156.034;    1.397;   -9.940;  721.880
1156.572;    2.505;  -13.570;  667.060
1157.110;    0.951;  -14.590;  473.940
1157.647;    2.454;  -13.030;  676.960
1158.185;    0.583;  -12.140;  564.320
1158.723;    0.144;  -14.390;  509.200
1159.260;    1.813;  -14.090;  701.700
1159.798;    1.845;  -11.920;  658.160
1160.335;    0.587;  -11.110;  631.820

