
Integration time [ms]:   3.276
Averaging Nr. [scans]: 1000
Smoothing Nr. [pixels]: 0
Data measured with spectrometer [name]: 7414430SP
Wave   ;Sample   ;Dark     ;Reference
[nm]   ;[counts] ;[counts] ;[counts] 

288.544;  159.805;    7.793;  793.890
289.143;  162.129;    7.462;  681.602
289.742;  162.638;    8.602;  828.814
290.341;  150.386;    1.321;  789.841
290.940;  140.726;   -0.709;  730.702
291.538;  141.506;    0.881;  881.108
292.137;  141.060;    0.122;  792.581
292.736;  145.144;   -1.929;  975.101
293.335;  139.594;   -8.229;  735.086
293.934;  140.920;   -5.279;  781.677
294.532;  141.720;   -1.369; 1031.958
295.131;  127.748;   -7.641;  834.394
295.730;  127.117;   -8.420;  809.588
296.328;  124.925;   -5.611;  783.442
296.927;  124.674;   -5.781;  779.652
297.525;  126.290;   -6.361;  781.236
298.124;  118.391;  -11.382;  654.009
298.722;  121.454;   -7.641;  761.933
299.321;  118.258;   -6.811;  708.597
299.919;  115.456;   -6.991;  751.918
300.518;  111.437;  -10.362;  689.338
301.116;  114.174;   -9.581;  691.381
301.715;  115.221;   -4.891;  730.222
302.313;  113.722;   -8.801;  704.943
302.911;  108.202;   -8.522;  733.830
303.509;  113.075;   -6.171;  925.627
304.108;  112.225;   -7.311;  760.383
304.706;  111.111;   -8.321;  801.664
305.304;  106.026;  -10.222;  796.707
305.902;  109.544;   -6.021;  784.484
306.500;  105.224;   -4.971;  728.200
307.098;  104.247;   -7.061;  746.560
307.696;  102.872;   -8.801;  780.432
308.294;  102.252;   -6.411;  731.359
308.892;  104.541;   -2.901;  759.769
309.490;  100.816;   -5.041;  712.161
310.088;   98.561;   -5.002;  788.444
310.686;  102.228;   -2.041;  821.749
311.284;   98.388;   -2.351;  766.040
311.882;   96.895;   -4.422;  731.225
312.480;   92.467;   -4.192;  697.167
313.078;   94.185;   -1.172;  808.331
313.675;   94.725;   -2.601;  691.600
314.273;   90.335;   -1.312;  797.837
314.871;   89.233;   -3.942;  589.829
315.468;   87.513;   -2.802;  652.090
316.066;   89.795;   -0.701;  694.427
316.664;   83.057;   -4.362;  656.351
317.261;   87.483;   -2.872;  910.128
317.859;   82.972;   -2.022;  768.735
318.456;   83.234;   -0.531;  830.096
319.054;   79.672;   -3.912;  787.828
319.651;   77.941;   -4.752;  759.928
320.249;   76.355;   -2.602;  810.188
320.846;   74.018;   -0.821;  714.286
321.443;   72.161;   -4.642;  832.135
322.041;   69.578;   -5.002;  812.315
322.638;   66.151;   -3.982;  701.456
323.235;   67.879;   -3.411;  665.683
323.833;   64.689;   -7.361;  740.354
324.430;   58.965;   -8.611;  615.900
325.027;   61.026;   -4.061;  876.855
325.624;   60.616;   -4.031;  644.532
326.221;   57.445;   -7.481;  689.717
326.818;   56.948;   -5.281;  818.332
327.415;   59.710;   -7.460;  748.828
328.012;   59.485;   -5.510;  690.585
328.609;   57.943;   -7.880;  731.389
329.206;   56.663;   -8.331;  778.621
329.803;   56.281;   -5.121;  737.841
330.400;   58.619;   -4.510;  704.260
330.997;   60.363;   -6.441;  817.147
331.594;   58.640;   -8.831;  788.185
332.191;   63.815;   -7.621;  728.722
332.787;   67.584;   -4.591;  844.463
333.384;   66.863;   -7.412;  763.093
333.981;   66.180;   -8.293;  815.687
334.578;   68.420;   -7.052;  708.378
335.174;   69.845;   -3.102;  731.469
335.771;   70.211;   -5.943;  836.456
336.367;   67.875;   -7.393;  710.631
336.964;   72.508;   -4.063;  793.266
337.561;   69.164;   -3.813;  731.112
338.157;   65.748;   -4.654;  911.916
338.754;   64.018;   -7.934;  796.589
339.350;   61.600;   -4.414;  722.493
339.946;   63.689;   -4.664;  773.135
340.543;   55.852;   -6.375;  846.136
341.139;   49.194;   -9.815;  720.836
341.735;   46.600;   -4.526;  772.593
342.332;   46.156;   -4.895;  691.472
342.928;   46.615;   -4.295;  795.394
343.524;   38.575;   -5.476;  761.684
344.120;   35.744;   -5.856;  738.562
344.716;   39.632;   -2.155;  723.717
345.313;   37.202;   -6.275;  795.342
345.909;   31.752;   -8.815;  627.336
346.505;   31.907;   -5.305;  740.247
347.101;   33.219;   -2.674;  827.864
347.697;   33.699;   -4.344;  785.398
348.293;   27.523;   -9.975;  627.244
348.889;   29.176;   -5.774;  745.914
349.485;   28.416;   -5.004;  688.205
350.081;   29.509;   -4.704;  772.592
350.676;   24.363;   -6.635;  691.606
351.272;   28.159;   -4.504;  809.530
351.868;   27.455;   -3.914;  780.497
352.464;   25.461;   -9.044;  723.932
353.059;   22.334;   -8.314;  646.017
353.655;   24.454;   -7.024;  777.063
354.251;   26.247;   -5.343;  759.845
354.846;   20.584;   -8.604;  740.646
355.442;   18.236;   -6.945;  753.071
356.038;   19.868;   -7.564;  751.708
356.633;   20.215;   -5.814;  728.594
357.229;   17.952;   -7.364;  724.757
357.824;   16.602;   -8.024;  703.600
358.420;   15.417;   -9.384;  679.726
359.015;   15.953;   -5.104;  695.357
359.610;   16.517;   -6.854;  763.920
360.206;   11.058;  -10.185;  603.240
360.801;   13.288;   -7.054;  646.503
361.396;   15.808;   -5.034;  725.975
361.992;   11.058;   -8.284;  668.220
362.587;    8.386;   -8.625;  670.160
363.182;   10.592;   -7.674;  689.631
363.777;   10.656;   -5.164;  738.242
364.372;   10.050;   -8.604;  737.314
364.967;    6.575;   -9.055;  680.744
365.563;   10.871;   -6.114;  815.567
366.158;    7.921;   -5.814;  685.161
366.753;    8.809;   -7.854;  649.263
367.348;    7.023;   -7.804;  746.056
367.942;    5.855;   -7.954;  697.298
368.537;    5.561;   -4.984;  754.245
369.132;    6.380;   -8.564;  703.428
369.727;    2.676;   -8.855;  638.079
370.322;    3.052;   -6.245;  580.186
370.917;    3.153;   -6.425;  710.646
371.511;    6.294;   -6.294;  861.834
372.106;    2.479;   -7.685;  776.964
372.701;   -1.031;   -7.335;  585.988
373.296;    4.875;   -4.564;  863.135
373.890;    0.545;  -10.235;  647.840
374.485;   -2.432;   -7.885;  691.199
375.079;    1.664;   -7.324;  738.685
375.674;    3.119;   -3.494;  812.970
376.268;   -1.958;   -8.525;  691.759
376.863;   -6.536;  -10.086;  580.327
377.457;   -0.612;   -7.025;  662.490
378.052;   -1.999;   -3.585;  764.884
378.646;   -3.626;   -7.595;  741.167
379.240;   -3.581;   -8.335;  721.176
379.835;   -3.023;   -5.785;  636.978
380.429;   -5.450;   -4.335;  562.557
381.023;   -5.297;   -6.805;  779.205
381.617;   -7.877;   -9.195;  680.106
382.212;   -4.634;   -6.905;  685.303
382.806;   -3.125;   -3.745;  760.690
383.400;   -7.328;   -7.745;  672.281
383.994;   -8.791;   -9.765;  664.870
384.588;   -5.009;   -6.564;  697.701
385.182;   -3.985;   -5.344;  726.624
385.776;   -5.077;   -8.514;  706.875
386.370;   -8.513;   -9.555;  681.968
386.964;   -7.716;   -8.715;  684.155
387.558;   -6.507;   -6.174;  598.360
388.152;   -8.951;   -8.725;  681.959
388.745;   -7.182;   -7.965;  814.707
389.339;   -6.193;   -5.924;  747.642
389.933;   -4.939;   -5.524;  695.370
390.527;   -4.970;   -7.114;  859.029
391.120;  -11.854;  -10.725;  595.318
391.714;   -9.509;   -8.035;  711.633
392.308;   -6.589;   -3.574;  780.253
392.901;   -9.162;   -7.245;  642.460
393.495;  -10.908;   -9.285;  595.414
394.089;   -8.793;   -5.895;  760.452
394.682;   -9.612;   -4.295;  697.188
395.275;   -9.932;   -9.875;  719.927
395.869;  -11.235;   -8.485;  667.314
396.462;  -10.061;   -7.455;  616.609
397.056;   -5.827;   -5.424;  776.621
397.649;  -10.532;   -6.605;  731.575
398.242;   -8.370;   -8.224;  712.645
398.836;   -7.757;   -7.474;  766.408
399.429;   -7.953;   -7.094;  631.041
400.022;  -11.729;   -9.475;  665.902
400.615;   -9.668;   -7.145;  805.609
401.208;   -7.982;   -7.174;  691.451
401.802;  -10.186;   -5.515;  699.329
402.395;  -10.614;   -9.875;  683.502
402.988;  -11.867;   -8.845;  696.627
403.581;   -8.513;   -8.874;  646.878
404.174;   -6.164;   -5.324;  686.568
404.767;   -9.235;   -9.575;  638.583
405.360;  -11.892;  -10.965;  621.445
405.953;   -6.055;   -8.764;  759.034
406.545;   -5.725;   -7.514;  725.342
407.138;   -9.933;  -10.025;  618.350
407.731;   -8.716;  -10.034;  613.303
408.324;   -4.705;   -9.374;  660.554
408.917;   -6.390;   -6.534;  681.864
409.509;   -7.734;   -8.004;  740.396
410.102;   -8.957;   -9.875;  643.948
410.695;   -4.025;   -8.604;  665.758
411.287;   -4.202;   -6.794;  599.821
411.880;   -5.561;   -9.334;  585.421
412.472;   -8.402;  -10.254;  613.092
413.065;   -5.655;   -6.714;  629.408
413.657;   -4.355;   -7.234;  576.678
414.250;   -3.074;  -10.544;  646.681
414.842;   -4.998;   -9.744;  676.353
415.434;   -2.762;   -6.994;  570.463
416.027;    0.850;   -5.893;  652.196
416.619;   -1.088;   -7.264;  713.400
417.211;   -1.367;  -10.374;  599.352
417.804;    1.706;   -7.993;  628.499
418.396;   -1.902;   -7.234;  607.643
418.988;    1.513;   -9.443;  659.238
419.580;   -3.131;  -10.724;  568.276
420.172;   -1.360;  -10.323;  536.196
420.764;    3.573;   -8.793;  672.482
421.356;    2.000;  -11.143;  636.898
421.948;    1.645;   -8.293;  677.661
422.540;    6.524;   -7.893;  680.027
423.132;    6.164;   -7.082;  600.641
423.724;    2.877;   -8.653;  561.267
424.316;    4.481;  -10.213;  621.345
424.908;    8.128;   -9.762;  591.517
425.500;    8.580;   -5.572;  647.978
426.092;    9.334;   -8.422;  648.268
426.683;    8.160;   -9.283;  684.836
427.275;   10.707;   -7.852;  641.471
427.867;   12.507;   -5.272;  668.948
428.458;   13.643;   -7.682;  732.344
429.050;   11.291;  -10.612;  680.749
429.642;   14.111;   -9.882;  743.124
430.233;   14.907;   -6.962;  569.356
430.825;   16.306;   -6.842;  724.809
431.416;   13.155;   -9.672;  698.241
432.008;   16.693;   -6.552;  651.723
432.599;   17.445;   -6.891;  656.073
433.190;   14.216;  -10.912;  637.670
433.782;   14.151;  -11.172;  590.395
434.373;   21.264;   -6.061;  884.765
434.964;   20.692;   -8.251;  602.920
435.556;   17.706;   -9.722;  634.537
436.147;   20.592;   -9.082;  758.490
436.738;   20.154;   -8.041;  701.099
437.329;   25.807;   -7.341;  721.723
437.920;   18.810;   -8.162;  666.688
438.511;   19.594;  -11.802;  564.526
439.103;   25.727;  -10.191;  623.998
439.694;   27.217;   -7.601;  681.583
440.285;   28.106;   -8.541;  764.432
440.876;   26.897;   -9.751;  845.738
441.466;   25.723;   -9.401;  575.162
442.057;   31.512;   -7.760;  665.814
442.648;   30.086;   -9.971;  746.255
443.239;   29.078;  -11.001;  620.477
443.830;   32.824;   -7.990;  704.958
444.421;   35.660;   -7.910;  655.474
445.011;   32.157;   -8.131;  693.619
445.602;   31.211;   -7.111;  743.126
446.193;   33.788;  -10.920;  488.117
446.783;   37.364;   -6.500;  640.397
447.374;   33.451;   -8.671;  692.759
447.964;   34.472;  -10.781;  713.770
448.555;   43.017;   -9.650;  822.742
449.145;   38.250;   -8.660;  662.853
449.736;   39.806;   -8.990;  803.179
450.326;   40.087;   -9.500;  713.626
450.917;   44.867;   -8.680;  675.324
451.507;   44.522;   -7.520;  600.661
452.097;   45.271;   -8.590;  746.267
452.688;   46.291;  -11.340;  742.160
453.278;   45.804;  -10.100;  566.840
453.868;   50.339;   -6.019;  793.550
454.458;   48.821;   -9.440;  651.141
455.048;   49.362;  -10.560;  711.783
455.639;   50.229;  -11.799;  567.096
456.229;   54.194;   -6.899;  710.694
456.819;   55.846;   -7.389;  751.158
457.409;   56.202;  -11.119;  773.993
457.999;   59.250;   -9.289;  737.505
458.589;   59.183;   -6.139;  686.606
459.179;   59.143;   -8.729;  717.658
459.769;   57.242;   -9.789;  627.099
460.358;   61.288;  -10.259;  797.262
460.948;   62.138;   -7.299;  689.503
461.538;   64.483;  -10.289;  660.677
462.128;   61.820;  -11.269;  664.934
462.717;   68.548;   -9.368;  710.326
463.307;   71.673;   -7.908;  705.846
463.897;   67.572;   -9.599;  656.942
464.486;   67.524;   -9.769;  837.128
465.076;   72.421;   -8.048;  733.776
465.666;   74.975;   -9.358;  652.900
466.255;   72.244;   -7.919;  785.651
466.845;   71.685;  -11.689;  666.749
467.434;   75.443;   -7.818;  725.873
468.023;   76.095;   -7.678;  658.357
468.613;   73.955;  -10.939;  713.946
469.202;   78.445;  -10.118;  646.507
469.791;   82.325;   -9.108;  737.811
470.381;   84.190;   -6.058;  742.813
470.970;   84.714;  -10.428;  711.099
471.559;   83.854;  -10.268;  733.291
472.148;   87.631;   -8.448;  675.737
472.738;   90.326;   -6.917;  765.466
473.327;   89.812;  -11.978;  637.529
473.916;   89.736;  -11.888;  737.446
474.505;   93.474;   -9.437;  751.703
475.094;   96.518;   -6.747;  806.570
475.683;   96.224;   -9.367;  797.699
476.272;   98.116;  -12.637;  730.632
476.861;  100.503;  -10.027;  706.754
477.449;  106.007;   -8.716;  728.487
478.038;  100.792;   -9.577;  692.513
478.627;  102.810;   -9.718;  714.852
479.216;  109.081;   -8.947;  769.441
479.805;  112.047;   -6.256;  783.375
480.393;  112.817;   -7.937; 1008.945
480.982;  111.859;   -7.717;  874.501
481.571;  117.506;   -9.266;  858.333
482.159;  118.720;   -7.636;  705.386
482.748;  118.778;   -9.667;  821.385
483.336;  122.675;  -10.376;  858.209
483.925;  124.265;   -7.147;  774.373
484.513;  131.955;   -7.996;  758.962
485.102;  128.772;  -10.027;  810.965
485.690;  138.448;  -10.446; 1011.050
486.278;  139.371;   -8.446;  979.329
486.867;  140.314;   -6.356;  809.662
487.455;  142.588;   -9.136;  898.229
488.043;  145.287;  -10.646;  748.361
488.631;  153.791;   -7.456; 1005.079
489.220;  158.250;   -6.636;  908.626
489.808;  158.840;  -11.036;  741.415
490.396;  167.444;  -10.246;  914.645
490.984;  175.696;   -8.556;  830.161
491.572;  187.651;   -5.886;  940.315
492.160;  197.608;   -9.486;  919.081
492.748;  211.430;  -10.976;  884.341
493.336;  235.515;   -8.776; 1019.693
493.924;  268.369;   -5.465;  958.077
494.512;  306.456;   -9.986; 1066.638
495.100;  358.960;  -10.636; 1103.280
495.687;  428.975;  -10.885; 1206.373
496.275;  490.305;   -8.126; 1150.796
496.863;  566.454;  -10.586; 1281.171
497.451;  692.207;  -11.926; 1386.805
498.038;  811.866;  -10.885; 1556.729
498.626;  919.184;   -6.315; 1741.407
499.214; 1086.305;   -7.326; 2016.609
499.801; 1333.204;  -11.906; 2220.633
500.389; 1619.166;  -10.466; 2312.494
500.976; 1902.582;   -5.236; 2744.849
501.564; 2377.179;   -8.936; 3148.565
502.151; 2887.262;  -13.176; 3515.999
502.738; 3456.972;  -10.646; 3971.274
503.326; 3868.819;   -9.525; 4403.796
503.913; 4203.220;  -10.856; 5161.749
504.500; 4768.881;  -11.586; 5986.420
505.088; 5076.467;  -10.336; 6381.201
505.675; 5592.010;   -6.355; 6925.547
506.262; 6140.333;   -9.046; 7619.060
506.849; 6758.165;  -10.416; 8733.969
507.436; 7359.500;  -10.305; 9790.121
508.023; 7865.255;   -5.496; 9985.472
508.610; 8728.987;   -7.856;10434.618
509.197;10143.645;  -10.097;11198.435
509.784;11781.419;  -10.886;12391.194
510.371;13320.979;   -9.315;13603.713
510.958;14291.000;   -9.936;14426.586
511.545;14923.740;   -9.326;15243.775
512.132;15491.690;  -10.075;15945.876
512.719;15697.081;   -7.796;16340.369
513.305;16686.545;  -10.606;18011.766
513.892;18065.861;  -11.486;19754.971
514.479;19996.361;   -9.126;20967.805
515.066;21824.574;   -6.026;22299.793
515.652;22032.334;   -8.466;22908.660
516.239;23178.820;  -10.886;23798.875
516.825;25630.178;  -11.496;25567.275
517.412;27870.363;   -5.796;28154.959
517.998;30013.039;  -10.506;28344.111
518.585;29644.766;  -10.076;27134.219
519.171;28160.078;   -8.315;27268.576
519.758;29242.182;   -8.596;28964.129
520.344;30696.510;   -8.466;30664.494
520.930;33417.133;  -11.006;32550.605
521.516;33905.816;  -10.495;35422.895
522.103;32082.232;   -5.526;38280.004
522.689;32705.848;   -8.746;37835.117
523.275;34415.125;  -11.376;37288.613
523.861;36364.414;  -11.156;37281.395
524.447;40054.949;   -8.135;37846.949
525.033;41140.043;   -7.896;38321.949
525.619;40895.527;  -12.476;38579.285
526.205;41128.496;   -9.516;40622.875
526.791;40736.434;   -6.926;42258.836
527.377;41634.367;   -8.346;42966.902
527.963;43228.914;   -8.717;42018.949
528.549;42169.598;  -11.016;42476.828
529.135;42516.316;   -8.536;41854.852
529.721;42267.047;   -9.666;41237.711
530.306;40528.105;  -10.066;41259.445
530.892;40283.121;  -11.356;41506.047
531.478;39838.777;   -6.596;43559.613
532.063;40520.867;   -8.836;47695.563
532.649;44376.523;  -10.047;50808.324
533.235;45673.539;   -9.746;51787.500
533.820;44902.242;   -6.566;52145.035
534.406;43773.414;  -10.817;51133.488
534.991;46721.664;   -9.416;49996.805
535.576;47943.785;   -9.036;48882.852
536.162;47909.941;   -6.156;46942.285
536.747;49255.395;  -11.607;45711.746
537.333;49960.414;  -11.787;48510.180
537.918;50294.109;  -12.437;50439.891
538.503;51687.000;   -7.196;50863.711
539.088;48778.492;  -10.556;50906.922
539.673;47065.164;   -8.767;52621.965
540.259;48373.617;  -10.026;52368.094
540.844;50349.395;   -7.416;50879.109
541.429;49184.734;   -9.467;52077.777
542.014;48852.160;   -9.527;52716.695
542.599;51219.336;   -9.946;52363.281
543.184;53866.438;   -7.927;53187.137
543.769;52064.113;   -9.297;54697.605
544.354;48628.723;  -10.127;53913.914
544.938;46764.945;   -9.267;49680.164
545.523;49123.480;   -6.506;47386.277
546.108;52963.570;   -9.787;49151.949
546.693;52182.391;  -11.587;51384.637
547.278;52063.672;  -10.986;51853.254
547.862;48872.707;   -8.206;51173.750
548.447;45993.105;  -10.067;51691.395
549.031;46774.609;   -9.637;52456.703
549.616;47867.836;   -9.926;52714.516
550.201;46668.719;   -6.347;52414.598
550.785;46478.164;   -7.917;52355.059
551.370;47899.992;  -10.867;54589.453
551.954;48549.129;   -9.047;58267.348
552.538;49320.863;   -7.827;59062.176
553.123;49416.008;  -10.287;58115.285
553.707;45336.020;  -12.178;56556.285
554.291;45994.551;   -8.717;56201.668
554.876;49280.766;   -7.457;55335.762
555.460;50464.988;  -10.387;54155.703
556.044;51333.102;   -9.618;53721.484
556.628;50394.871;  -11.567;53731.016
557.212;48314.703;   -8.097;54312.531
557.796;49888.352;  -11.077;53797.773
558.380;47748.973;  -11.108;56145.984
558.964;46282.961;   -9.057;57277.930
559.548;45929.711;   -6.977;56459.641
560.132;44594.004;  -11.457;54434.543
560.716;43737.828;  -11.378;54800.617
561.300;44765.777;   -9.577;57606.945
561.884;46797.223;   -7.127;58972.445
562.467;47763.223;   -7.118;57327.570
563.051;47079.844;  -13.358;54962.434
563.635;44817.938;  -10.178;52594.473
564.219;44276.543;   -7.837;50610.410
564.802;43877.316;  -11.398;49551.180
565.386;45031.090;  -12.788;48370.953
565.969;45869.711;   -9.077;48178.871
566.553;46010.125;   -6.207;49957.305
567.136;42985.504;   -8.568;50369.594
567.720;42003.082;  -11.868;49492.004
568.303;41790.371;   -8.268;50616.352
568.887;40561.926;   -8.698;50727.148
569.470;41018.465;   -6.808;51698.379
570.053;39826.977;  -13.188;52122.078
570.637;38425.043;  -12.037;52536.438
571.220;37804.289;   -8.577;51186.098
571.803;38289.797;   -8.498;51032.762
572.386;41018.984;  -10.498;49609.887
572.969;42643.539;   -9.388;48285.926
573.552;38746.855;   -8.338;47624.285
574.135;36388.973;   -8.518;45498.641
574.718;33097.418;  -13.628;41970.434
575.301;32704.131;  -10.893;41447.137
575.884;32310.844;   -8.158;40923.836
576.467;37434.758;  -10.328;45267.723
577.050;35950.371;  -13.058;48175.543
577.633;34922.676;   -9.458;47729.328
578.216;36478.355;   -8.928;47579.793
578.799;37259.965;   -9.358;47820.996
579.381;36756.836;  -11.388;48115.551
579.964;33720.305;  -11.718;47333.766
580.547;33319.039;   -8.588;46668.969
581.129;34988.242;   -8.859;44466.141
581.712;35452.492;  -10.729;44164.922
582.294;36635.816;  -11.118;46477.855
582.877;34442.105;   -5.218;48244.254
583.459;34462.340;   -8.679;47437.895
584.042;36216.488;  -10.709;46943.219
584.624;38232.445;  -11.669;46792.227
585.206;37445.262;   -8.218;46557.250
585.789;36445.867;  -10.569;45793.773
586.371;36840.820;  -11.859;43836.391
586.953;35528.840;  -10.719;42972.492
587.536;36998.148;   -7.198;42487.211
588.118;38380.086;   -8.720;42086.414
588.700;37645.906;  -10.439;43389.930
589.282;37836.352;   -9.198;43646.039
589.864;36588.977;   -9.199;43438.109
590.446;34161.793;  -11.319;43151.926
591.028;33795.891;  -11.159;42781.867
591.610;33741.191;  -11.779;42839.098
592.192;30760.670;   -7.668;42820.402
592.774;31426.121;  -11.949;40724.277
593.356;32461.393;  -12.129;39874.789
593.937;29971.934;  -10.669;39980.648
594.519;31293.086;   -6.509;42069.633
595.101;33476.051;  -10.849;42976.031
595.683;32265.645;  -11.679;44084.441
596.264;32236.105;   -9.049;43478.797
596.846;34298.059;   -8.849;43803.672
597.427;34272.500;   -9.570;42986.934
598.009;35484.984;  -12.620;42832.219
598.591;34659.957;  -10.039;42580.086
599.172;33473.563;  -10.369;43061.805
599.753;31675.129;   -9.140;41691.469
600.335;31515.699;  -11.430;40692.520
600.916;31995.102;   -9.939;39982.422
601.498;30674.971;   -8.479;40318.617
602.079;29319.154;  -10.920;40670.609
602.660;31052.264;  -11.480;41450.898
603.241;32623.291;  -11.699;41137.738
603.823;33302.430;   -9.579;38868.797
604.404;33065.531;  -10.620;38182.785
604.985;31653.713;  -10.450;38078.047
605.566;31211.453;   -9.129;38056.633
606.147;31340.768;   -7.510;37020.418
606.728;32501.324;  -10.660;37883.359
607.309;33543.938;  -11.740;38748.273
607.890;33253.086;   -9.759;38850.230
608.471;31457.018;   -8.250;37457.918
609.051;31397.498;   -9.240;36066.457
609.632;29662.102;  -12.120;35991.074
610.213;28693.271;   -9.110;37402.641
610.794;30928.410;   -8.030;38383.363
611.374;33278.051;   -8.110;40562.387
611.955;32878.813;  -13.560;38533.727
612.536;30258.230;  -11.400;36951.789
613.116;29094.053;   -8.070;37197.891
613.697;31212.184;  -10.830;38411.125
614.277;32622.129;  -11.641;38673.938
614.858;32031.789;  -13.310;37075.863
615.438;30328.424;   -7.460;35092.906
616.019;28456.223;   -7.601;33666.301
616.599;29515.459;  -12.020;34189.023
617.179;31151.930;  -11.780;36952.047
617.760;33925.078;   -8.570;39582.574
618.340;33944.699;  -11.471;38943.977
618.920;32375.318;  -11.170;37594.156
619.500;34168.086;  -11.071;37866.938
620.080;34463.340;   -7.750;37869.043
620.660;32624.074;  -12.711;36868.617
621.241;31085.521;  -10.211;36352.309
621.821;30188.814;  -10.961;35459.520
622.401;29385.953;   -7.720;35207.414
622.980;30555.525;   -8.981;35980.422
623.560;30971.781;   -9.331;37351.328
624.140;29551.705;   -9.850;34388.582
624.720;26655.010;   -7.451;32368.764
625.300;24836.455;   -9.070;32638.629
625.880;28394.459;  -12.601;34599.035
626.459;30357.781;  -11.751;36831.738
627.039;30903.139;   -9.281;38299.098
627.619;32794.340;   -8.801;38289.574
628.198;32527.447;  -12.071;37220.695
628.778;31502.553;   -9.461;37632.563
629.357;32544.891;   -8.491;38003.012
629.937;32792.316;   -9.721;38402.039
630.516;32895.477;   -9.951;37868.801
631.096;33057.633;  -11.731;35760.410
631.675;34234.621;   -8.572;35225.219
632.254;33804.734;  -11.282;35130.289
632.834;33266.086;  -13.322;35794.570
633.413;33159.008;  -10.301;35788.922
633.992;32326.043;   -8.582;34532.863
634.571;33910.918;   -8.352;33590.113
635.151;34081.363;  -11.912;34943.863
635.730;32912.598;  -10.511;35352.523
636.309;35421.648;   -7.731;35366.605
636.888;33617.164;   -9.952;36165.637
637.467;31227.988;  -11.672;37515.902
638.046;31145.570;   -8.901;39288.695
638.625;32053.055;   -7.912;38279.699
639.204;32483.441;  -10.022;37741.598
639.782;30508.410;  -12.252;38364.551
640.361;28637.512;  -10.041;36740.621
640.940;27610.189;  -11.161;34950.082
641.519;28664.430;   -9.701;34137.398
642.097;30607.611;  -11.271;35654.258
642.676;32281.777;   -8.651;35637.957
643.255;33392.020;   -8.711;36567.074
643.833;31013.078;   -9.581;37809.434
644.412;28685.355;  -13.711;37337.293
644.990;30488.971;  -11.811;37018.531
645.569;33286.453;   -9.411;36518.469
646.147;32862.031;  -10.291;36186.430
646.726;31727.105;  -12.401;36267.688
647.304;31710.334;  -10.411;36647.625
647.882;30777.256;   -9.651;39286.742
648.461;32140.375;   -9.631;39157.703
649.039;35552.047;  -11.881;35412.883
649.617;35814.605;   -9.661;34744.918
650.195;33578.262;   -9.301;35403.098
650.773;32380.643;  -10.511;35053.797
651.352;31695.027;  -11.521;33756.816
651.930;29359.582;  -12.211;31868.773
652.508;26105.434;   -9.171;33121.551
653.086;27120.506;   -9.371;33564.793
653.663;33120.414;  -13.161;34054.668
654.241;37256.063;  -13.031;35693.309
654.819;38002.457;   -9.371;36422.906
655.397;37841.211;  -10.511;38213.484
655.975;34087.875;  -10.371;39507.625
656.553;30669.195;  -10.051;39498.223
657.130;28892.359;  -10.061;40395.480
657.708;26874.686;   -9.561;39242.020
658.286;24480.854;  -11.511;38920.020
658.863;26533.869;  -10.261;40202.898
659.441;30228.334;   -7.531;39677.938
660.018;32283.527;   -9.501;40413.355
660.596;31692.121;  -13.301;39931.414
661.173;31467.756;  -11.211;39604.531
661.750;33162.953;   -9.951;39700.070
662.328;32038.104;   -9.390;39292.809
662.905;31062.869;  -11.330;38235.648
663.482;28902.291;   -9.050;36212.305
664.060;26049.162;   -8.240;35944.945
664.637;26552.902;  -10.050;35170.785
665.214;29745.729;  -11.760;34197.523
665.791;30285.633;  -10.530;34549.520
666.368;29395.502;   -9.690;35118.578
666.945;30862.172;   -9.320;36019.418
667.522;31448.494;  -11.860;36048.438
668.099;32697.242;  -10.770;36243.914
668.676;32523.613;   -6.260;35958.875
669.253;35066.465;   -7.000;37384.730
669.830;36531.609;  -10.190;36779.629
670.407;33342.508;   -9.550;35231.289
670.984;33525.711;   -9.260;35544.270
671.560;30915.973;   -9.280;35466.867
672.137;26839.668;  -11.810;34280.863
672.714;28268.320;  -11.490;34632.863
673.290;31872.992;   -7.740;35135.422
673.867;31745.252;  -10.660;36114.480
674.443;31979.633;  -12.230;36152.859
675.020;31699.482;  -10.450;35327.238
675.596;29946.762;   -9.260;35795.176
676.173;28576.885;  -10.780;35430.355
676.749;28198.592;  -13.690;33549.516
677.326;28331.801;  -11.980;32210.012
677.902;27569.906;   -8.630;32068.871
678.478;29315.957;  -10.730;32583.891
679.054;30306.391;  -10.520;32088.928
679.631;29699.750;  -11.920;30978.848
680.207;29770.535;   -7.490;33160.887
680.783;31517.182;   -9.860;35570.363
681.359;33015.738;  -13.380;36125.184
681.935;33710.434;  -12.480;35240.922
682.511;32935.926;   -7.900;34429.961
683.087;31697.363;   -7.710;34463.680
683.663;31364.115;  -11.480;34648.898
684.239;30305.461;  -14.090;34546.457
684.815;29104.598;   -7.560;35586.375
685.390;29209.248;   -9.910;35821.895
685.966;30282.307;  -11.159;35085.871
686.542;31887.475;  -11.169;34198.230
687.118;33342.914;   -5.959;32847.707
687.693;32296.354;  -10.329;32794.027
688.269;33353.398;  -12.059;33072.367
688.844;33577.223;  -10.909;33141.664
689.420;30793.051;   -8.019;33965.742
689.995;29346.039;   -8.399;34655.523
690.571;30722.088;  -10.949;33576.742
691.146;30272.217;   -9.619;32657.219
691.722;28835.281;   -8.999;32526.979
692.297;28312.723;  -11.589;33014.617
692.872;28386.877;  -11.739;34012.254
693.448;31151.184;  -11.059;34237.434
694.023;31940.176;  -10.139;34142.672
694.598;30076.471;   -9.029;34132.031
695.173;30984.334;  -13.319;34205.250
695.748;31460.352;  -10.169;32882.488
696.323;29138.719;   -8.339;32864.906
696.898;27219.605;   -8.169;33170.004
697.473;27611.537;  -12.309;32432.984
698.048;27871.459;  -10.989;31649.303
698.623;26519.482;   -9.329;30778.141
699.198;27268.285;   -9.849;31140.119
699.773;28326.805;  -12.329;31764.299
700.348;29724.646;  -10.389;31780.816
700.922;30109.250;   -9.269;32046.375
701.497;31069.463;   -9.329;32603.574
702.072;32042.559;  -10.789;34799.871
702.646;30971.422;  -10.839;35793.172
703.221;30143.488;   -9.099;35201.590
703.795;32126.363;  -10.939;34764.527
704.370;29772.010;  -12.859;34307.367
704.944;28163.160;  -11.559;33509.887
705.519;29272.715;   -7.939;31388.584
706.093;31735.816;  -10.499;31340.104
706.668;34098.207;  -11.289;32630.281
707.242;33574.617;  -11.509;32728.779
707.816;31720.387;   -9.639;32947.238
708.390;30292.039;  -11.429;33277.855
708.965;29309.533;  -11.869;33834.336
709.539;30518.172;  -11.689;33709.273
710.113;30651.854;  -10.478;33044.313
710.687;29999.518;  -10.228;31953.992
711.261;29240.301;  -13.698;30505.949
711.835;29665.168;  -13.378;30262.369
712.409;28897.523;   -9.698;31254.447
712.983;28585.291;  -11.898;32754.986
713.557;30990.637;  -15.138;34018.824
714.131;29000.848;  -14.098;34579.625
714.704;28495.221;   -9.958;33890.262
715.278;30647.609;  -10.028;33531.102
715.852;29304.203;  -11.148;33601.660
716.425;28034.631;   -9.068;33515.117
716.999;26696.098;  -10.038;33185.555
717.573;26373.807;   -9.798;33905.996
718.146;25707.873;  -12.378;35199.293
718.720;26258.137;  -11.918;35060.551
719.293;26730.969;   -8.088;34973.230
719.867;28893.318;  -10.888;36394.449
720.440;30460.807;  -11.938;36663.008
721.013;31092.469;  -12.818;35102.426
721.587;28773.684;  -10.298;33985.266
722.160;26761.926;  -10.048;33524.965
722.733;26113.643;  -12.108;32987.043
723.306;26406.201;  -10.818;33066.301
723.880;28258.490;   -8.908;33399.500
724.453;28104.410;   -9.878;33468.297
725.026;28177.238;  -11.188;33816.637
725.599;31055.342;  -11.678;32797.996
726.172;30789.441;   -9.618;33187.434
726.745;28214.467;   -8.258;35136.613
727.318;27746.594;  -12.978;35751.730
727.891;26786.604;  -12.148;35890.430
728.463;25652.080;   -8.968;34822.090
729.036;25643.068;  -10.188;32895.086
729.609;25724.367;  -11.788;31823.225
730.182;23892.631;  -11.788;31445.283
730.754;22613.342;  -10.268;32373.223
731.327;22694.672;   -9.998;33676.820
731.900;23996.480;  -12.228;33417.000
732.472;23850.029;  -13.848;31978.498
733.045;22937.652;   -8.698;30368.777
733.617;22627.275;  -10.607;30574.215
734.190;24512.025;  -11.507;31280.975
734.762;25382.924;  -13.647;31674.412
735.334;26856.311;   -9.767;31247.291
735.907;27443.734;   -9.897;29876.211
736.479;27242.307;  -11.637;29808.488
737.051;28117.336;   -9.567;30233.547
737.623;27359.945;   -8.187;31469.086
738.195;25930.438;  -11.187;31784.225
738.768;24775.967;  -12.337;32120.523
739.340;23166.730;  -12.227;32094.342
739.912;22281.910;  -11.057;31312.680
740.484;22267.164;  -10.207;31946.238
741.056;21974.914;  -10.047;32984.059
741.628;22966.793;  -13.627;33897.715
742.199;23759.371;   -7.177;33213.016
742.771;25895.385;  -10.797;31369.113
743.343;26658.512;  -11.997;31865.473
743.915;26573.137;  -12.867;32388.631
744.487;24196.113;   -7.617;31079.568
745.058;21293.055;   -9.557;30570.107
745.630;22339.213;   -9.877;29970.127
746.201;23959.754;  -14.177;29186.766
746.773;24449.355;   -9.237;28805.723
747.344;22498.090;   -9.847;29591.223
747.916;20765.984;  -11.657;31412.201
748.487;21770.504;  -10.587;32194.898
749.059;23680.736;   -8.707;32533.719
749.630;24062.156;  -10.537;32158.518
750.201;23424.410;  -11.687;30855.395
750.773;22156.621;  -11.647;28622.555
751.344;22025.766;   -7.147;28405.732
751.915;24200.414;   -9.757;28461.551
752.486;25303.146;  -12.427;27842.850
753.057;23996.207;  -12.227;27845.008
753.628;23934.096;  -10.417;27728.107
754.199;23704.148;  -11.767;27381.086
754.770;23272.279;  -11.187;25882.203
755.341;22012.938;  -10.507;25886.184
755.912;20469.406;   -9.387;26050.861
756.483;19063.625;  -10.647;26798.779
757.054;19541.449;  -11.837;27048.238
757.625;19629.984;  -12.716;26294.838
758.195;19443.645;   -9.666;26142.076
758.766;19646.490;   -8.656;26392.234
759.337;19133.938;  -12.856;26334.594
759.907;18878.418;  -13.366;27579.652
760.478;18546.816;   -8.576;28352.770
761.048;19534.100;  -10.526;27325.088
761.619;19660.006;  -11.116;26460.428
762.189;18303.721;  -12.136;26029.826
762.760;17940.441;   -9.456;26430.145
763.330;18279.170;   -7.136;26670.902
763.900;18329.320;  -11.786;26603.021
764.471;17967.096;  -11.546;25542.740
765.041;17124.004;   -8.096;24358.459
765.611;16413.186;   -8.876;23991.297
766.181;16426.055;  -12.196;24470.236
766.751;16295.563;  -11.636;24845.975
767.321;17321.658;  -10.156;24533.633
767.891;16729.697;  -11.766;24916.492
768.461;16824.045;  -14.936;24776.771
769.031;17770.527;  -12.356;24757.988
769.601;18420.592;   -7.526;24181.088
770.171;18301.480;  -10.766;23670.387
770.741;17573.438;  -13.176;22960.045
771.311;17028.828;  -10.616;22917.523
771.880;17235.010;   -9.576;23562.941
772.450;16905.330;  -10.336;24216.500
773.020;16494.963;  -13.516;24140.398
773.589;17142.777;  -13.466;24414.857
774.159;17075.078;   -8.686;23858.717
774.729;15647.535;   -9.476;22942.135
775.298;13843.561;  -13.666;22324.033
775.867;13537.957;  -11.716;21140.313
776.437;13642.686;   -9.906;20838.092
777.006;12950.476;  -12.166;20599.510
777.576;12486.832;  -12.356;20508.809
778.145;12405.731;  -11.646;20732.947
778.714;12855.669;   -8.226;21062.465
779.283;13885.685;   -9.556;20949.664
779.853;14597.928;  -14.116;20508.623
780.422;14058.267;  -11.506;20649.082
780.991;13613.541;   -9.556;21527.520
781.560;13345.363;   -9.095;22632.658
782.129;13190.666;  -12.135;23048.277
782.698;13002.918;  -10.865;23438.555
783.267;12660.288;   -9.335;23267.734
783.836;12774.900;  -11.045;22415.133
784.404;13463.567;  -13.865;20443.152
784.973;12711.415;  -13.095;19699.150
785.542;11311.991;  -11.575;19763.828
786.111;10639.595;   -9.705;20341.408
786.679;11370.504;  -12.105;20207.967
787.248;11741.847;  -12.455;19516.465
787.817;11521.336;  -11.535;18900.363
788.385;11572.808;   -9.765;17879.121
788.954;11449.269;  -14.005;17658.301
789.522;10882.547;  -11.955;17788.879
790.090;11106.866;  -10.135;18118.277
790.659;12021.985;  -10.975;18338.736
791.227;12027.573;  -13.375;18508.615
791.795;11530.288;  -12.375;17898.254
792.364;10966.489;  -10.725;17295.133
792.932;11088.912;   -9.715;16822.051
793.500;11169.184;  -12.675;17040.148
794.068;10933.856;  -13.495;17179.787
794.636; 9840.934;  -10.885;16664.246
795.204; 8838.890;  -11.045;16524.545
795.772; 9455.207;  -13.175;17274.564
796.340;10578.526;  -12.445;17891.002
796.908;10438.104;   -9.735;17648.561
797.476;10842.442;   -9.815;17064.080
798.044;11698.350;  -13.985;16672.777
798.612;11526.795;  -13.115;17023.996
799.180;10223.974;  -10.185;16561.615
799.747; 9178.595;   -9.055;15962.773
800.315; 8615.168;  -12.385;15296.992
800.883; 8907.549;  -15.035;14801.771
801.450; 9182.974;  -10.365;14534.430
802.018; 9251.128;   -9.855;14173.248
802.585; 9399.968;  -11.905;14029.547
803.153; 8951.769;  -11.585;13836.846
803.720; 8319.313;   -9.095;13567.324
804.287; 8369.597;   -9.135;13360.622
804.855; 8636.204;  -11.604;13681.981
805.422; 8722.367;  -11.794;13536.560
805.989; 8615.668;  -10.734;13355.958
806.556; 8216.676;  -10.444;13747.896
807.124; 8060.248;  -12.764;13987.376
807.691; 8624.146;  -12.964;14038.674
808.258; 9063.191;  -11.134;14120.152
808.825; 9298.475;   -9.854;13860.111
809.392; 9020.454;  -10.504;13268.790
809.959; 8565.666;  -13.054;12680.389
810.526; 8374.363;   -8.294;12427.308
811.093; 8042.543;   -8.394;12030.105
811.659; 7254.166;  -12.304;11653.664
812.226; 7008.702;  -13.944;11637.183
812.793; 7515.941;  -10.484;11611.521
813.360; 7650.516;  -10.144;11885.181
813.926; 6905.517;  -11.684;12770.539
814.493; 6299.875;  -13.644;12677.638
815.060; 6165.658;   -9.724;11974.336
815.626; 6471.713;   -9.854;11594.715
816.193; 6529.686;  -13.254;11579.474
816.759; 6543.568;  -13.204;11666.972
817.325; 6325.890;   -9.434;11325.530
817.892; 6024.449;  -10.134;11105.369
818.458; 5967.297;  -13.474;10843.928
819.024; 5980.993;  -11.854;10714.406
819.591; 6254.357;  -10.244;10469.165
820.157; 6329.080;  -10.704;10235.523
820.723; 6566.489;  -12.324;10847.563
821.289; 6996.451;   -9.444;11040.980
821.855; 7083.448;   -8.374;10357.100
822.421; 6700.372;  -10.234; 9978.918
822.987; 6424.377;  -13.294; 9754.177
823.553; 6266.851;  -10.884;10065.755
824.119; 5838.608;   -8.884;10036.294
824.685; 5644.745;   -6.784;10029.192
825.251; 5592.208;  -12.004;10199.230
825.816; 5692.177;  -11.474; 9820.189
826.382; 5482.124;   -9.174; 9297.248
826.948; 5237.760;   -9.214; 9381.347
827.513; 5030.817;  -10.774; 9450.726
828.079; 4982.860;  -11.924; 9472.444
828.645; 5100.205;  -10.543; 9292.643
829.210; 5328.572;  -10.533; 9065.341
829.776; 5346.021;  -10.753; 9132.620
830.341; 5226.938;  -10.173; 9092.878
830.906; 5303.884;  -10.743; 9078.557
831.472; 5189.886;  -11.113; 8534.535
832.037; 4698.410;  -10.603; 8677.874
832.602; 4605.933;  -13.323; 8628.692
833.167; 4943.131;  -10.823; 8879.031
833.733; 4921.759;  -10.113; 9189.790
834.298; 4670.603;  -13.583; 9052.608
834.863; 4555.538;  -12.703; 8895.087
835.428; 4440.114;  -10.523; 8824.266
835.993; 4389.887;   -6.963; 8845.385
836.558; 4480.528;  -10.763; 8888.563
837.123; 4591.782;   -9.903; 8966.582
837.688; 4444.215;   -9.913; 8617.860
838.253; 4298.189;  -10.283; 8590.699
838.817; 4417.326;  -12.963; 8443.797
839.382; 4600.457;  -14.243; 8799.356
839.947; 4512.207;  -10.733; 8810.595
840.511; 4571.367;   -9.383; 8796.394
841.076; 4576.167;  -12.563; 8347.231
841.641; 4381.991;  -12.953; 8224.330
842.205; 4108.819;   -7.043; 8223.349
842.770; 4070.361;   -8.163; 8622.107
843.334; 4103.379;  -12.503; 8410.386
843.898; 4053.315;  -11.693; 8337.465
844.463; 3953.503;  -10.203; 8506.283
845.027; 3879.109;   -9.533; 8280.962
845.591; 3930.488;  -13.443; 8231.141
846.156; 3851.096;  -13.143; 7969.179
846.720; 3669.913;   -9.433; 7768.278
847.284; 3394.049;  -11.033; 7630.957
847.848; 3232.115;  -10.403; 7472.395
848.412; 3243.118;  -11.553; 7437.394
848.976; 3422.555;   -8.393; 7674.592
849.540; 3462.463;   -8.713; 7836.011
850.104; 3438.935;  -12.463; 7913.669
850.668; 3577.215;  -12.973; 7694.508
851.232; 3610.368;  -10.793; 7756.887
851.796; 3523.146;  -10.662; 7926.545
852.359; 3555.593;  -13.082; 7827.844
852.923; 3330.784;  -12.192; 7641.163
853.487; 3256.148;  -11.912; 7342.501
854.050; 3407.566;  -10.892; 7042.820
854.614; 3389.307;  -13.992; 7151.338
855.177; 3278.787;  -11.732; 7105.077
855.741; 3202.533;   -8.962; 6989.675
856.304; 3096.972;   -9.442; 6596.634
856.868; 2853.728;  -14.192; 6356.272
857.431; 2637.953;  -12.702; 6468.571
857.995; 2672.444;   -9.942; 6373.210
858.558; 2711.948;   -9.112; 6324.448
859.121; 2539.197;  -12.932; 6408.327
859.684; 2477.549;  -13.442; 6347.886
860.247; 2875.155;  -10.632; 6321.264
860.810; 3196.229;  -11.272; 6301.903
861.374; 3213.625;   -9.832; 6607.881
861.937; 3186.991;  -11.762; 6408.200
862.500; 3051.155;   -9.722; 6572.639
863.062; 2753.053;  -10.512; 6387.297
863.625; 2638.077;  -11.232; 6190.836
864.188; 2644.395;  -14.112; 5807.254
864.751; 2647.031;  -11.302; 5682.413
865.314; 2759.238;  -10.112; 5547.492
865.876; 2784.831;  -12.182; 5500.150
866.439; 2696.391;  -10.722; 5415.909
867.002; 2534.362;   -9.252; 5501.567
867.564; 2424.530;   -9.572; 5413.946
868.127; 2302.708;  -13.142; 5160.325
868.689; 2029.137;  -12.902; 5133.183
869.252; 1891.469;   -9.732; 5252.382
869.814; 1898.159;   -9.432; 5297.141
870.377; 1992.217;  -11.552; 5390.919
870.939; 1977.308;   -9.052; 5599.898
871.501; 1910.776;  -10.982; 5248.336
872.063; 1945.307;  -12.292; 4854.235
872.626; 1962.197;  -14.912; 4817.074
873.188; 1972.187;  -13.112; 4987.732
873.750; 1925.360;  -13.442; 4868.651
874.312; 1981.549;   -9.402; 4779.330
874.874; 2121.340;  -11.062; 4866.348
875.436; 2017.439;  -13.931; 4718.887
875.998; 1734.317;   -9.561; 4660.005
876.560; 1573.708;  -11.321; 4462.964
877.122; 1564.104;  -12.221; 4145.042
877.683; 1548.011;  -12.191; 4056.481
878.245; 1632.050;  -12.101; 3950.740
878.807; 1771.373;   -8.971; 4058.958
879.369; 1807.279;  -12.071; 3954.677
879.930; 1742.536;  -14.621; 3941.495
880.492; 1579.636;  -10.311; 4067.014
881.053; 1424.255;  -10.901; 3859.633
881.615; 1408.052;  -14.411; 3776.071
882.176; 1437.409;  -13.761; 3734.750
882.738; 1449.057;   -9.181; 3678.489
883.299; 1411.559;  -11.791; 3405.407
883.860; 1343.979;  -13.121; 3351.106
884.422; 1240.059;  -11.211; 3394.044
884.983; 1158.162;  -10.091; 3166.443
885.544; 1135.930;   -8.461; 3189.802
886.105; 1082.513;  -12.361; 3160.360
886.666; 1008.632;  -14.141; 3093.059
887.227;  977.560;  -11.361; 2941.957
887.788;  991.410;  -11.401; 2974.836
888.349;  948.295;  -13.791; 2721.214
888.910;  856.174;  -13.191; 2696.493
889.471;  755.465;   -9.881; 2560.172
890.032;  681.806;   -9.881; 2558.190
890.593;  678.089;  -10.371; 2567.669
891.153;  676.734;  -13.301; 2460.307
891.714;  617.265;  -11.431; 2372.046
892.275;  570.226;  -11.291; 2309.505
892.835;  555.179;  -11.471; 2382.543
893.396;  544.202;  -11.541; 2295.502
893.956;  542.075;  -11.181; 2162.420
894.517;  533.026;  -11.741; 2125.439
895.077;  489.430;  -11.671; 2086.978
895.638;  440.461;  -11.311; 2126.316
896.198;  419.740;   -9.831; 1838.275
896.758;  418.725;   -8.421; 1892.813
897.319;  412.512;  -12.351; 1792.232
897.879;  393.893;  -13.511; 1762.751
898.439;  368.786;  -12.001; 1661.149
898.999;  350.046;  -10.180; 1781.468
899.559;  337.311;  -12.030; 1703.347
900.119;  328.862;  -15.710; 1537.525
900.679;  308.179;   -8.900; 1638.384
901.239;  281.516;   -8.340; 1527.902
901.799;  266.625;  -13.910; 1456.441
902.359;  257.419;  -13.460; 1357.140
902.919;  251.488;  -11.490; 1331.118
903.479;  248.746;  -12.110; 1317.257
904.038;  241.386;  -11.720; 1262.595
904.598;  226.909;  -13.610; 1152.034
905.158;  215.241;  -11.040; 1240.893
905.717;  209.960;  -10.900; 1233.691
906.277;  206.262;  -15.080; 1217.330
906.836;  203.268;  -13.380; 1222.408
907.396;  200.924;  -10.780; 1193.047
907.955;  194.092;   -8.500; 1182.526
908.515;  186.539;  -12.760; 1099.364
909.074;  182.180;  -11.900; 1092.863
909.633;  179.160;   -8.950; 1069.121
910.192;  176.311;   -8.770; 1196.460
910.752;  173.294;  -12.390; 1029.960
911.311;  169.461;  -13.680; 1009.780
911.870;  164.933;  -12.370;  971.460
912.429;  160.920;  -10.900; 1094.080
912.988;  159.083;  -11.690; 1081.060
913.547;  154.726;  -13.240;  940.380
914.106;  154.234;  -11.990;  999.420
914.665;  154.273;   -9.990;  984.020
915.224;  153.250;  -12.880; 1035.760
915.782;  151.448;  -12.350;  922.560
916.341;  151.932;   -9.110; 1049.840
916.900;  150.060;   -9.270;  925.260
917.458;  147.209;  -13.240;  884.220
918.017;  146.240;  -13.550;  942.600
918.576;  145.410;  -12.320;  904.440
919.134;  144.772;  -11.490;  837.980
919.693;  143.557;  -13.670;  893.060
920.251;  141.606;  -15.470;  876.500
920.809;  141.087;  -11.290;  839.580
921.368;  140.009;  -10.210;  885.360
921.926;  140.375;  -12.140;  842.940
922.484;  139.943;  -13.080;  903.360
923.042;  139.827;  -11.720;  880.340
923.601;  140.523;   -7.480;  998.680
924.159;  138.377;  -11.570;  935.560
924.717;  138.675;  -13.840;  841.080
925.275;  140.149;  -10.640;  903.240
925.833;  138.268;  -11.540;  779.320
926.391;  139.479;  -12.960;  938.380
926.949;  138.453;  -14.130;  857.680
927.506;  139.499;  -11.750;  903.500
928.064;  137.357;  -10.250;  877.580
928.622;  136.628;  -13.030;  880.100
929.180;  138.419;  -13.400;  814.180
929.737;  139.446;  -10.700;  808.540
930.295;  141.193;  -10.070;  928.480
930.853;  141.313;  -11.960;  849.100
931.410;  140.204;  -13.120;  821.120
931.968;  141.346;  -10.770;  940.660
932.525;  142.901;  -10.680;  909.380
933.082;  145.078;  -13.130;  811.440
933.640;  150.041;  -13.210;  925.900
934.197;  151.420;  -11.060;  886.360
934.754;  150.513;   -9.580;  897.780
935.312;  151.185;  -14.000;  863.340
935.869;  154.715;  -10.710; 1012.980
936.426;  153.795;   -9.860;  872.800
936.983;  152.425;   -9.710;  889.020
937.540;  150.509;  -13.990;  838.280
938.097;  150.806;  -14.040;  940.120
938.654;  153.157;  -10.310;  898.860
939.211;  154.167;  -10.560;  952.480
939.768;  153.322;  -13.900;  915.420
940.324;  154.075;  -14.760;  904.200
940.881;  157.962;  -10.370;  878.500
941.438;  164.763;   -8.260; 1021.200
941.995;  166.320;  -12.540;  992.560
942.551;  163.786;  -14.670;  875.620
943.108;  164.023;  -10.450;  937.920
943.664;  165.231;  -10.750;  869.340
944.221;  168.878;  -11.550; 1088.140
944.777;  171.045;  -14.770;  869.680
945.334;  170.151;  -12.820;  884.840
945.890;  169.262;  -10.130;  946.480
946.446;  165.306;  -13.470;  947.020
947.003;  166.460;  -12.120;  964.940
947.559;  166.371;   -9.980; 1063.040
948.115;  162.900;   -9.080; 1026.540
948.671;  159.435;  -10.830;  967.300
949.227;  157.349;  -12.440;  859.560
949.783;  157.367;  -12.910;  858.900
950.339;  159.310;  -10.270;  991.000
950.895;  159.793;  -13.630; 1023.840
951.451;  158.857;  -15.100;  925.280
952.007;  159.571;  -11.330;  998.540
952.563;  157.627;  -10.580;  937.780
953.118;  152.308;  -13.440;  904.940
953.674;  150.670;  -12.710;  935.780
954.230;  152.306;  -10.350;  949.640
954.785;  156.015;   -9.190;  936.640
955.341;  157.299;  -11.200;  998.160
955.897;  153.980;  -16.560;  834.660
956.452;  151.227;  -12.570;  953.840
957.008;  149.839;   -7.970; 1083.640
957.563;  147.953;  -11.940; 1009.540
958.118;  146.269;  -13.450;  877.700
958.674;  146.952;  -12.030;  946.780
959.229;  145.486;   -9.410; 1013.980
959.784;  144.558;  -12.000;  832.400
960.339;  141.915;  -14.780; 1001.280
960.894;  137.424;   -9.860;  963.760
961.449;  130.419;   -9.970;  859.960
962.004;  128.876;  -10.900; 1212.840
962.559;  123.264;  -13.150;  860.140
963.114;  121.183;  -13.740;  742.480
963.669;  123.497;   -9.820;  915.500
964.224;  121.746;  -13.890;  874.340
964.779;  121.951;  -12.600;  828.420
965.334;  122.906;  -10.950; 1017.860
965.888;  121.816;  -11.170;  875.360
966.443;  121.778;  -12.540;  972.380
966.998;  121.618;  -15.780;  819.460
967.552;  122.056;   -9.760;  908.380
968.107;  116.485;   -9.060;  868.300
968.661;  114.939;  -11.950;  922.440
969.216;  114.155;  -12.800;  856.280
969.770;  114.076;  -11.210;  917.200
970.324;  111.897;  -11.610;  923.140
970.879;  109.734;  -11.370;  947.180
971.433;  108.766;  -12.540;  952.720
971.987;  106.306;  -11.320;  895.340
972.541;  106.236;  -10.720;  917.100
973.095;  107.571;   -9.680; 1009.460
973.649;  106.016;  -11.440;  809.480
974.203;  105.168;  -11.210;  829.040
974.757;  106.185;  -10.240;  855.220
975.311;  105.679;  -13.720;  872.600
975.865;  106.636;  -13.770;  881.820
976.419;  105.373;  -11.690;  857.400
976.973;  105.245;   -9.510;  849.620
977.526;  105.176;  -12.620;  949.920
978.080;  101.829;  -12.010;  796.780
978.634;  100.508;  -10.170;  921.320
979.187;   97.781;   -9.020;  905.400
979.741;   97.229;   -9.820; 1018.380
980.294;   91.950;  -14.870;  789.160
980.848;   88.234;  -12.380;  717.220
981.401;   87.870;  -10.350;  816.540
981.955;   87.816;  -13.720;  844.300
982.508;   85.153;  -11.490;  746.340
983.061;   85.520;  -10.000;  915.260
983.615;   84.413;  -11.480;  798.800
984.168;   83.452;  -13.220;  770.080
984.721;   83.651;  -13.960;  880.760
985.274;   81.552;  -10.870;  867.500
985.827;   80.623;   -9.790;  834.220
986.380;   78.617;  -13.120;  721.340
986.933;   79.349;  -12.450;  864.800
987.486;   79.120;  -10.210;  861.920
988.039;   78.177;   -8.430;  863.100
988.591;   75.165;  -10.520;  893.260
989.144;   71.911;  -14.860;  737.260
989.697;   69.805;  -13.080;  758.740
990.250;   68.889;  -10.150;  858.100
990.802;   66.908;  -13.430;  755.860
991.355;   66.894;  -12.750;  974.880
991.907;   64.518;  -12.040;  864.320
992.460;   62.141;  -11.330;  753.760
993.012;   61.298;  -13.610;  749.540
993.565;   60.362;  -13.460;  711.360
994.117;   61.657;   -9.360;  950.780
994.669;   59.702;  -11.300;  701.320
995.221;   58.753;  -13.540;  791.920
995.774;   57.156;  -13.430;  787.580
996.326;   56.926;  -12.520;  740.220
996.878;   56.824;  -10.950;  838.420
997.430;   54.972;  -14.300;  699.860
997.982;   53.704;  -13.760;  750.140
998.534;   53.607;  -11.530;  739.060
999.086;   52.012;  -10.310;  738.220
999.638;   51.264;  -12.530;  661.380
1000.190;   50.013;  -11.840;  699.320
1000.741;   49.567;  -10.260;  742.700
1001.293;   49.414;   -8.860;  686.020
1001.845;   48.577;  -13.700;  676.640
1002.396;   49.667;  -12.100;  743.400
1002.948;   48.188;  -12.760;  737.400
1003.500;   45.920;  -10.380;  723.780
1004.051;   46.879;  -11.900;  907.580
1004.603;   46.652;  -12.250;  791.820
1005.154;   43.091;  -13.210;  608.980
1005.705;   42.416;  -10.950;  723.960
1006.257;   42.133;  -13.880;  707.220
1006.808;   41.231;  -12.840;  685.460
1007.359;   40.314;  -10.570;  763.240
1007.910;   38.772;   -9.620;  646.640
1008.461;   39.533;  -13.630;  732.940
1009.013;   38.076;  -17.200;  588.340
1009.564;   39.423;  -10.200;  793.520
1010.115;   37.463;  -12.570;  597.040
1010.665;   37.432;  -15.150;  602.160
1011.216;   36.583;  -14.480;  667.920
1011.767;   37.103;  -11.340;  697.920
1012.318;   36.589;   -9.780;  736.980
1012.869;   36.062;  -12.380;  679.000
1013.419;   35.349;  -15.560;  603.120
1013.970;   35.919;  -11.010;  666.640
1014.521;   34.941;  -11.610;  620.620
1015.071;   35.559;  -13.450;  670.380
1015.622;   34.976;  -13.870;  635.460
1016.172;   34.779;  -11.610;  596.820
1016.723;   33.857;  -12.120;  614.380
1017.273;   33.618;  -13.620;  604.160
1017.823;   33.762;  -14.140;  650.340
1018.374;   33.190;  -12.800;  611.760
1018.924;   33.375;  -12.340;  716.880
1019.474;   33.153;  -11.410;  718.880
1020.024;   32.010;  -14.770;  657.580
1020.574;   32.593;   -9.780;  726.160
1021.124;   32.745;   -8.560;  673.580
1021.674;   31.296;  -15.190;  559.120
1022.224;   32.949;  -13.530;  708.940
1022.774;   31.501;  -13.280;  668.820
1023.324;   32.899;  -10.690;  753.520
1023.874;   33.793;  -10.240;  875.760
1024.423;   31.218;  -12.540;  613.700
1024.973;   30.978;  -10.010;  610.760
1025.523;   29.523;  -10.550;  620.960
1026.072;   29.055;  -13.560;  606.420
1026.622;   29.462;  -15.120;  675.740
1027.172;   31.161;  -11.260;  715.660
1027.721;   29.192;  -11.410;  601.220
1028.270;   29.325;  -13.530;  663.400
1028.820;   29.717;  -13.680;  638.080
1029.369;   28.751;  -13.520;  612.700
1029.918;   29.170;  -10.980;  649.840
1030.468;   28.200;  -13.530;  564.780
1031.017;   28.268;  -13.170;  634.800
1031.566;   27.688;  -12.200;  608.900
1032.115;   28.403;   -9.960;  694.500
1032.664;   27.601;  -13.210;  596.480
1033.213;   28.589;  -12.500;  735.420
1033.762;   27.103;  -11.910;  635.620
1034.311;   27.507;   -9.640;  677.220
1034.860;   27.691;  -13.310;  691.000
1035.408;   27.694;  -11.830;  722.720
1035.957;   27.397;  -12.000;  719.540
1036.506;   24.994;  -11.690;  530.800
1037.055;   28.124;  -10.990;  844.320
1037.603;   26.449;  -15.120;  664.000
1038.152;   24.386;  -12.450;  534.760
1038.700;   25.449;  -10.560;  585.740
1039.249;   24.877;  -11.080;  681.220
1039.797;   25.928;  -12.540;  633.360
1040.345;   25.500;  -11.920;  705.420
1040.894;   25.279;  -11.410;  625.300
1041.442;   25.062;  -14.320;  632.200
1041.990;   24.430;  -16.240;  559.160
1042.538;   23.004;  -11.680;  536.180
1043.087;   23.550;  -10.760;  570.860
1043.635;   25.041;  -11.850;  670.500
1044.183;   24.132;  -15.480;  586.400
1044.731;   23.904;  -11.770;  576.000
1045.279;   23.852;  -13.090;  674.920
1045.827;   24.895;  -12.440;  892.400
1046.374;   22.747;  -13.840;  515.420
1046.922;   22.319;  -13.220;  590.580
1047.470;   23.696;  -10.230;  691.300
1048.018;   23.361;  -14.590;  647.960
1048.565;   24.316;  -12.050;  708.600
1049.113;   22.427;  -11.650;  557.000
1049.660;   22.477;  -10.510;  629.660
1050.208;   23.051;  -13.310;  675.640
1050.755;   22.038;  -15.900;  606.580
1051.303;   21.907;  -11.430;  686.820
1051.850;   22.199;   -8.480;  635.120
1052.397;   19.640;  -15.010;  473.960
1052.945;   21.071;  -13.960;  617.760
1053.492;   22.579;  -13.150;  741.840
1054.039;   22.619;   -9.630;  720.180
1054.586;   20.840;  -13.680;  557.240
1055.133;   21.513;  -14.570;  693.140
1055.680;   21.968;  -13.820;  646.620
1056.227;   20.789;  -11.730;  542.780
1056.774;   22.313;  -12.480;  794.980
1057.321;   19.220;  -13.930;  523.260
1057.868;   19.808;  -11.690;  651.320
1058.415;   20.412;   -9.520;  651.980
1058.961;   20.780;  -13.160;  678.940
1059.508;   20.452;  -12.920;  643.820
1060.055;   19.613;  -11.920;  581.780
1060.601;   19.902;  -11.500;  624.300
1061.148;   19.450;  -14.330;  616.820
1061.694;   19.727;  -16.870;  592.580
1062.241;   19.946;  -10.330;  596.320
1062.787;   20.030;  -10.620;  663.140
1063.334;   21.435;  -10.110;  808.560
1063.880;   20.059;  -13.400;  668.360
1064.426;   19.329;  -10.680;  706.820
1064.972;   17.475;   -9.920;  601.340
1065.518;   17.069;  -10.980;  566.640
1066.065;   18.780;  -14.890;  624.460
1066.611;   18.018;  -12.870;  598.800
1067.157;   18.601;  -12.950;  641.860
1067.703;   17.910;  -13.540;  668.480
1068.249;   17.736;  -13.540;  605.220
1068.794;   18.047;  -12.600;  626.880
1069.340;   16.669;  -10.620;  578.960
1069.886;   17.492;  -12.830;  590.700
1070.432;   16.480;  -14.870;  541.720
1070.977;   16.275;  -11.980;  601.080
1071.523;   16.333;   -8.200;  573.060
1072.068;   16.532;  -12.330;  582.000
1072.614;   16.189;  -16.370;  527.760
1073.160;   16.611;  -11.100;  687.040
1073.705;   15.883;  -10.480;  572.520
1074.250;   15.573;  -14.520;  559.900
1074.796;   17.019;  -11.460;  655.160
1075.341;   17.411;  -11.950;  664.100
1075.886;   16.980;  -11.460;  594.240
1076.431;   15.654;  -13.770;  649.880
1076.976;   15.329;  -12.680;  639.220
1077.521;   15.129;  -13.170;  583.080
1078.067;   14.956;  -10.860;  579.400
1078.612;   15.400;  -13.920;  661.620
1079.156;   15.257;  -13.880;  601.540
1079.701;   15.261;  -13.120;  693.260
1080.246;   15.273;   -9.940;  696.300
1080.791;   15.225;  -14.740;  625.020
1081.336;   15.772;  -13.750;  659.320
1081.880;   14.809;  -13.400;  649.680
1082.425;   13.618;  -12.220;  573.480
1082.970;   16.595;  -11.610;  717.040
1083.514;   13.704;  -13.580;  597.000
1084.059;   13.455;  -12.810;  586.720
1084.603;   13.593;  -12.320;  565.840
1085.147;   14.553;  -13.190;  645.220
1085.692;   14.646;  -12.480;  716.800
1086.236;   12.753;  -13.020;  503.140
1086.780;   15.535;   -9.190;  751.440
1087.325;   14.507;  -12.480;  654.620
1087.869;   13.818;  -12.450;  610.700
1088.413;   14.132;  -12.240;  705.040
1088.957;   12.171;   -9.020;  543.400
1089.501;   13.864;  -10.320;  766.640
1090.045;   13.795;  -12.720;  726.480
1090.589;   10.846;  -13.690;  569.920
1091.133;   12.817;  -10.020;  673.340
1091.676;   12.898;  -12.330;  591.940
1092.220;   11.906;  -14.970;  600.920
1092.764;   13.187;  -12.430;  706.960
1093.307;   12.742;   -9.800;  673.780
1093.851;   10.841;  -14.970;  556.540
1094.395;   12.460;  -15.310;  683.140
1094.938;   11.570;  -10.370;  632.520
1095.482;   11.914;  -11.050;  559.800
1096.025;   12.674;  -11.840;  710.880
1096.568;   12.591;  -12.840;  779.280
1097.112;    9.602;  -14.700;  508.180
1097.655;   12.270;   -8.720;  603.000
1098.198;   10.383;  -13.610;  600.180
1098.741;   10.385;  -13.350;  612.860
1099.285;   11.452;  -11.230;  657.300
1099.828;    9.706;  -11.840;  439.400
1100.371;   11.270;  -10.840;  608.160
1100.914;   10.307;  -14.190;  682.660
1101.457;   10.739;  -11.240;  679.900
1101.999;    9.968;  -11.270;  584.680
1102.542;   10.614;  -11.480;  641.440
1103.085;    9.956;  -11.750;  658.500
1103.628;   11.708;  -11.400;  762.060
1104.170;   10.127;  -10.490;  588.280
1104.713;   10.463;  -10.600;  646.700
1105.256;    9.475;  -14.360;  557.440
1105.798;    8.596;  -13.210;  499.980
1106.341;   10.644;  -10.270;  728.900
1106.883;    8.455;  -12.200;  521.340
1107.425;   10.290;  -13.110;  668.180
1107.968;    9.075;  -12.840;  612.380
1108.510;   10.060;   -6.480;  684.960
1109.052;    8.793;  -13.940;  612.620
1109.594;    8.473;  -13.690;  554.440
1110.136;    9.459;  -11.880;  643.220
1110.679;    8.460;   -9.500;  633.080
1111.221;    9.075;  -14.160;  604.460
1111.763;    8.178;  -13.980;  559.220
1112.304;    8.088;  -13.880;  547.140
1112.846;    8.628;  -12.210;  666.240
1113.388;   11.560;  -11.390;  942.180
1113.930;    8.799;  -14.540;  694.200
1114.472;    7.520;  -12.640;  606.540
1115.013;    6.580;  -11.620;  551.280
1115.555;    6.763;  -13.640;  587.100
1116.097;    6.738;  -15.380;  579.480
1116.638;    7.476;  -12.640;  684.600
1117.180;    8.008;   -9.850;  667.740
1117.721;    7.080;  -13.690;  568.580
1118.262;    8.082;  -12.680;  677.960
1118.804;    8.021;  -12.530;  637.340
1119.345;    6.577;  -11.690;  578.400
1119.886;    7.574;  -13.380;  704.040
1120.427;    6.610;  -14.070;  589.020
1120.969;    6.350;  -13.500;  597.920
1121.510;    6.201;  -11.480;  563.060
1122.051;    6.636;  -12.830;  723.580
1122.592;    5.798;  -14.290;  655.420
1123.133;    4.857;  -12.400;  547.940
1123.673;    6.906;  -10.130;  706.480
1124.214;    5.281;  -12.930;  612.460
1124.755;    7.332;  -14.380;  639.460
1125.296;    6.411;  -14.000;  627.320
1125.836;    6.700;  -10.070;  691.500
1126.377;    5.423;  -12.640;  599.660
1126.918;    6.191;  -12.960;  614.980
1127.458;    4.345;  -13.350;  622.220
1127.999;    5.461;  -10.750;  656.980
1128.539;    5.903;  -12.350;  694.240
1129.079;    4.764;  -14.860;  632.720
1129.620;    4.047;  -13.840;  558.100
1130.160;    3.809;  -12.330;  539.480
1130.700;    4.786;  -14.530;  640.840
1131.240;    5.572;  -12.530;  643.700
1131.781;    3.991;  -14.450;  619.680
1132.321;    5.040;   -9.790;  599.120
1132.861;    3.854;  -14.860;  564.200
1133.401;    4.036;  -14.290;  593.940
1133.941;    4.335;  -11.750;  626.280
1134.481;    4.139;   -9.920;  597.580
1135.020;    3.657;  -12.290;  609.160
1135.560;    4.867;  -11.650;  674.940
1136.100;    2.940;  -16.270;  501.160
1136.640;    2.880;  -10.890;  510.480
1137.179;    3.910;  -14.180;  537.960
1137.719;    4.128;  -16.250;  605.400
1138.258;    3.716;  -14.230;  587.360
1138.798;    4.525;   -9.090;  663.780
1139.337;    1.986;  -15.130;  482.840
1139.877;    4.187;  -13.680;  642.360
1140.416;    5.925;  -11.320;  878.060
1140.955;    2.580;  -10.860;  535.380
1141.494;    3.551;  -12.920;  669.280
1142.034;    2.949;  -13.930;  583.520
1142.573;    3.787;  -11.440;  646.280
1143.112;    2.780;  -12.000;  553.480
1143.651;    2.155;  -13.670;  536.480
1144.190;    3.881;  -12.730;  691.640
1144.729;    2.303;  -14.560;  607.420
1145.267;    3.510;  -11.830;  584.900
1145.806;    3.514;  -12.230;  637.040
1146.345;    2.850;  -14.130;  635.020
1146.884;    2.358;  -11.590;  622.500
1147.422;    1.939;  -12.550;  533.060
1147.961;    4.004;  -11.180;  708.460
1148.500;    3.130;  -11.510;  669.720
1149.038;    3.172;  -11.640;  632.500
1149.577;    2.781;  -10.130;  698.640
1150.115;    0.781;  -13.970;  452.280
1150.653;    2.592;  -14.520;  607.340
1151.192;    1.677;  -12.810;  552.920
1151.730;    1.590;   -9.100;  652.560
1152.268;    1.169;  -12.220;  589.520
1152.806;    2.195;  -14.140;  571.180
1153.344;   -0.055;  -12.350;  577.640
1153.882;    1.397;   -8.980;  600.060
1154.421;    0.366;  -15.190;  470.620
1154.958;    0.816;  -15.210;  595.240
1155.496;    1.537;  -12.850;  645.280
1156.034;    1.583;   -9.940;  721.880
1156.572;    2.462;  -13.570;  667.060
1157.110;    0.956;  -14.590;  473.940
1157.647;    1.794;  -13.030;  676.960
1158.185;    0.364;  -12.140;  564.320
1158.723;   -0.307;  -14.390;  509.200
1159.260;    0.970;  -14.090;  701.700
1159.798;    1.473;  -11.920;  658.160
1160.335;    0.567;  -11.110;  631.820

