
Integration time [ms]:   3.276
Averaging Nr. [scans]: 1000
Smoothing Nr. [pixels]: 0
Data measured with spectrometer [name]: 7414430SP
Wave   ;Sample   ;Dark     ;Reference
[nm]   ;[counts] ;[counts] ;[counts] 

288.544;  160.990;    7.793;  793.890
289.143;  164.112;    7.462;  681.602
289.742;  164.262;    8.602;  828.814
290.341;  150.208;    1.321;  789.841
290.940;  141.436;   -0.709;  730.702
291.538;  144.223;    0.881;  881.108
292.137;  143.028;    0.122;  792.581
292.736;  145.162;   -1.929;  975.101
293.335;  140.888;   -8.229;  735.086
293.934;  142.200;   -5.279;  781.677
294.532;  144.010;   -1.369; 1031.958
295.131;  130.003;   -7.641;  834.394
295.730;  130.097;   -8.420;  809.588
296.328;  126.823;   -5.611;  783.442
296.927;  125.809;   -5.781;  779.652
297.525;  127.130;   -6.361;  781.236
298.124;  119.248;  -11.382;  654.009
298.722;  123.360;   -7.641;  761.933
299.321;  120.239;   -6.811;  708.597
299.919;  115.784;   -6.991;  751.918
300.518;  112.103;  -10.362;  689.338
301.116;  115.622;   -9.581;  691.381
301.715;  116.996;   -4.891;  730.222
302.313;  115.151;   -8.801;  704.943
302.911;  108.902;   -8.522;  733.830
303.509;  113.804;   -6.171;  925.627
304.108;  113.487;   -7.311;  760.383
304.706;  112.751;   -8.321;  801.664
305.304;  106.105;  -10.222;  796.707
305.902;  110.967;   -6.021;  784.484
306.500;  106.326;   -4.971;  728.200
307.098;  106.051;   -7.061;  746.560
307.696;  104.081;   -8.801;  780.432
308.294;  104.167;   -6.411;  731.359
308.892;  105.317;   -2.901;  759.769
309.490;  102.314;   -5.041;  712.161
310.088;  100.074;   -5.002;  788.444
310.686;  104.091;   -2.041;  821.749
311.284;  100.087;   -2.351;  766.040
311.882;   97.846;   -4.422;  731.225
312.480;   94.666;   -4.192;  697.167
313.078;   95.379;   -1.172;  808.331
313.675;   96.724;   -2.601;  691.600
314.273;   92.229;   -1.312;  797.837
314.871;   90.982;   -3.942;  589.829
315.468;   88.610;   -2.802;  652.090
316.066;   91.542;   -0.701;  694.427
316.664;   84.413;   -4.362;  656.351
317.261;   89.009;   -2.872;  910.128
317.859;   84.360;   -2.022;  768.735
318.456;   84.726;   -0.531;  830.096
319.054;   80.048;   -3.912;  787.828
319.651;   79.243;   -4.752;  759.928
320.249;   77.415;   -2.602;  810.188
320.846;   75.574;   -0.821;  714.286
321.443;   73.359;   -4.642;  832.135
322.041;   69.583;   -5.002;  812.315
322.638;   67.369;   -3.982;  701.456
323.235;   67.836;   -3.411;  665.683
323.833;   65.107;   -7.361;  740.354
324.430;   60.420;   -8.611;  615.900
325.027;   62.483;   -4.061;  876.855
325.624;   60.879;   -4.031;  644.532
326.221;   57.277;   -7.481;  689.717
326.818;   57.125;   -5.281;  818.332
327.415;   59.754;   -7.460;  748.828
328.012;   59.737;   -5.510;  690.585
328.609;   58.290;   -7.880;  731.389
329.206;   57.277;   -8.331;  778.621
329.803;   57.420;   -5.121;  737.841
330.400;   59.919;   -4.510;  704.260
330.997;   60.292;   -6.441;  817.147
331.594;   58.197;   -8.831;  788.185
332.191;   63.243;   -7.621;  728.722
332.787;   67.461;   -4.591;  844.463
333.384;   66.576;   -7.412;  763.093
333.981;   64.148;   -8.293;  815.687
334.578;   67.035;   -7.052;  708.378
335.174;   70.965;   -3.102;  731.469
335.771;   70.382;   -5.943;  836.456
336.367;   67.868;   -7.393;  710.631
336.964;   71.745;   -4.063;  793.266
337.561;   71.311;   -3.813;  731.112
338.157;   65.302;   -4.654;  911.916
338.754;   62.672;   -7.934;  796.589
339.350;   63.876;   -4.414;  722.493
339.946;   65.011;   -4.664;  773.135
340.543;   55.582;   -6.375;  846.136
341.139;   50.249;   -9.815;  720.836
341.735;   48.016;   -4.526;  772.593
342.332;   47.246;   -4.895;  691.472
342.928;   46.267;   -4.295;  795.394
343.524;   39.018;   -5.476;  761.684
344.120;   36.192;   -5.856;  738.562
344.716;   39.503;   -2.155;  723.717
345.313;   35.813;   -6.275;  795.342
345.909;   31.179;   -8.815;  627.336
346.505;   33.078;   -5.305;  740.247
347.101;   33.417;   -2.674;  827.864
347.697;   33.734;   -4.344;  785.398
348.293;   28.263;   -9.975;  627.244
348.889;   29.055;   -5.774;  745.914
349.485;   28.232;   -5.004;  688.205
350.081;   28.262;   -4.704;  772.592
350.676;   23.661;   -6.635;  691.606
351.272;   28.037;   -4.504;  809.530
351.868;   27.840;   -3.914;  780.497
352.464;   24.630;   -9.044;  723.932
353.059;   21.032;   -8.314;  646.017
353.655;   24.467;   -7.024;  777.063
354.251;   25.808;   -5.343;  759.845
354.846;   19.073;   -8.604;  740.646
355.442;   17.311;   -6.945;  753.071
356.038;   19.516;   -7.564;  751.708
356.633;   20.659;   -5.814;  728.594
357.229;   16.776;   -7.364;  724.757
357.824;   16.472;   -8.024;  703.600
358.420;   14.610;   -9.384;  679.726
359.015;   15.447;   -5.104;  695.357
359.610;   16.473;   -6.854;  763.920
360.206;   10.603;  -10.185;  603.240
360.801;   12.959;   -7.054;  646.503
361.396;   15.171;   -5.034;  725.975
361.992;   10.372;   -8.284;  668.220
362.587;    8.034;   -8.625;  670.160
363.182;    9.307;   -7.674;  689.631
363.777;   10.232;   -5.164;  738.242
364.372;   10.017;   -8.604;  737.314
364.967;    5.039;   -9.055;  680.744
365.563;   10.144;   -6.114;  815.567
366.158;    7.421;   -5.814;  685.161
366.753;    7.490;   -7.854;  649.263
367.348;    6.805;   -7.804;  746.056
367.942;    6.241;   -7.954;  697.298
368.537;    5.001;   -4.984;  754.245
369.132;    4.549;   -8.564;  703.428
369.727;    1.747;   -8.855;  638.079
370.322;    2.858;   -6.245;  580.186
370.917;    2.446;   -6.425;  710.646
371.511;    5.330;   -6.294;  861.834
372.106;    1.998;   -7.685;  776.964
372.701;   -1.941;   -7.335;  585.988
373.296;    3.665;   -4.564;  863.135
373.890;   -1.271;  -10.235;  647.840
374.485;   -4.345;   -7.885;  691.199
375.079;    1.136;   -7.324;  738.685
375.674;    2.704;   -3.494;  812.970
376.268;   -3.055;   -8.525;  691.759
376.863;   -7.805;  -10.086;  580.327
377.457;   -1.949;   -7.025;  662.490
378.052;   -3.075;   -3.585;  764.884
378.646;   -4.888;   -7.595;  741.167
379.240;   -4.923;   -8.335;  721.176
379.835;   -3.938;   -5.785;  636.978
380.429;   -6.436;   -4.335;  562.557
381.023;   -6.962;   -6.805;  779.205
381.617;   -9.249;   -9.195;  680.106
382.212;   -5.227;   -6.905;  685.303
382.806;   -4.149;   -3.745;  760.690
383.400;   -9.103;   -7.745;  672.281
383.994;   -9.963;   -9.765;  664.870
384.588;   -6.062;   -6.564;  697.701
385.182;   -4.803;   -5.344;  726.624
385.776;   -6.711;   -8.514;  706.875
386.370;   -9.541;   -9.555;  681.968
386.964;   -8.501;   -8.715;  684.155
387.558;   -6.857;   -6.174;  598.360
388.152;  -10.901;   -8.725;  681.959
388.745;   -8.568;   -7.965;  814.707
389.339;   -6.371;   -5.924;  747.642
389.933;   -4.774;   -5.524;  695.370
390.527;   -7.678;   -7.114;  859.029
391.120;  -13.419;  -10.725;  595.318
391.714;  -10.288;   -8.035;  711.633
392.308;   -6.567;   -3.574;  780.253
392.901;  -11.065;   -7.245;  642.460
393.495;  -12.873;   -9.285;  595.414
394.089;  -10.588;   -5.895;  760.452
394.682;  -11.233;   -4.295;  697.188
395.275;  -12.033;   -9.875;  719.927
395.869;  -12.912;   -8.485;  667.314
396.462;  -11.441;   -7.455;  616.609
397.056;   -7.677;   -5.424;  776.621
397.649;  -12.589;   -6.605;  731.575
398.242;   -9.580;   -8.224;  712.645
398.836;   -9.041;   -7.474;  766.408
399.429;  -10.271;   -7.094;  631.041
400.022;  -13.963;   -9.475;  665.902
400.615;  -11.971;   -7.145;  805.609
401.208;   -8.913;   -7.174;  691.451
401.802;  -11.176;   -5.515;  699.329
402.395;  -13.305;   -9.875;  683.502
402.988;  -13.604;   -8.845;  696.627
403.581;  -10.819;   -8.874;  646.878
404.174;   -7.663;   -5.324;  686.568
404.767;  -11.038;   -9.575;  638.583
405.360;  -13.280;  -10.965;  621.445
405.953;   -7.930;   -8.764;  759.034
406.545;   -7.799;   -7.514;  725.342
407.138;  -12.054;  -10.025;  618.350
407.731;  -10.837;  -10.034;  613.303
408.324;   -6.187;   -9.374;  660.554
408.917;   -7.100;   -6.534;  681.864
409.509;   -9.851;   -8.004;  740.396
410.102;  -11.302;   -9.875;  643.948
410.695;   -5.743;   -8.604;  665.758
411.287;   -5.752;   -6.794;  599.821
411.880;   -7.943;   -9.334;  585.421
412.472;  -11.508;  -10.254;  613.092
413.065;   -7.988;   -6.714;  629.408
413.657;   -5.909;   -7.234;  576.678
414.250;   -6.126;  -10.544;  646.681
414.842;   -7.243;   -9.744;  676.353
415.434;   -5.455;   -6.994;  570.463
416.027;   -1.290;   -5.893;  652.196
416.619;   -3.016;   -7.264;  713.400
417.211;   -3.634;  -10.374;  599.352
417.804;   -0.557;   -7.993;  628.499
418.396;   -3.630;   -7.234;  607.643
418.988;   -2.387;   -9.443;  659.238
419.580;   -5.251;  -10.724;  568.276
420.172;   -2.842;  -10.323;  536.196
420.764;    1.368;   -8.793;  672.482
421.356;   -0.123;  -11.143;  636.898
421.948;   -1.232;   -8.293;  677.661
422.540;    4.182;   -7.893;  680.027
423.132;    3.316;   -7.082;  600.641
423.724;   -0.132;   -8.653;  561.267
424.316;    1.791;  -10.213;  621.345
424.908;    5.598;   -9.762;  591.517
425.500;    6.716;   -5.572;  647.978
426.092;    5.892;   -8.422;  648.268
426.683;    4.764;   -9.283;  684.836
427.275;    8.277;   -7.852;  641.471
427.867;   10.182;   -5.272;  668.948
428.458;    9.741;   -7.682;  732.344
429.050;    8.749;  -10.612;  680.749
429.642;   11.593;   -9.882;  743.124
430.233;   12.061;   -6.962;  569.356
430.825;   12.460;   -6.842;  724.809
431.416;   10.178;   -9.672;  698.241
432.008;   14.214;   -6.552;  651.723
432.599;   14.313;   -6.891;  656.073
433.190;   10.880;  -10.912;  637.670
433.782;   10.391;  -11.172;  590.395
434.373;   18.597;   -6.061;  884.765
434.964;   16.593;   -8.251;  602.920
435.556;   14.436;   -9.722;  634.537
436.147;   16.836;   -9.082;  758.490
436.738;   17.208;   -8.041;  701.099
437.329;   22.431;   -7.341;  721.723
437.920;   15.961;   -8.162;  666.688
438.511;   14.764;  -11.802;  564.526
439.103;   21.976;  -10.191;  623.998
439.694;   24.344;   -7.601;  681.583
440.285;   24.930;   -8.541;  764.432
440.876;   22.665;   -9.751;  845.738
441.466;   22.607;   -9.401;  575.162
442.057;   28.267;   -7.760;  665.814
442.648;   25.984;   -9.971;  746.255
443.239;   24.557;  -11.001;  620.477
443.830;   30.411;   -7.990;  704.958
444.421;   32.017;   -7.910;  655.474
445.011;   27.871;   -8.131;  693.619
445.602;   27.252;   -7.111;  743.126
446.193;   29.810;  -10.920;  488.117
446.783;   34.240;   -6.500;  640.397
447.374;   29.092;   -8.671;  692.759
447.964;   29.596;  -10.781;  713.770
448.555;   38.473;   -9.650;  822.742
449.145;   35.414;   -8.660;  662.853
449.736;   36.042;   -8.990;  803.179
450.326;   36.223;   -9.500;  713.626
450.917;   41.147;   -8.680;  675.324
451.507;   40.283;   -7.520;  600.661
452.097;   40.519;   -8.590;  746.267
452.688;   42.020;  -11.340;  742.160
453.278;   42.049;  -10.100;  566.840
453.868;   46.629;   -6.019;  793.550
454.458;   43.758;   -9.440;  651.141
455.048;   43.793;  -10.560;  711.783
455.639;   45.661;  -11.799;  567.096
456.229;   49.554;   -6.899;  710.694
456.819;   50.745;   -7.389;  751.158
457.409;   51.424;  -11.119;  773.993
457.999;   54.323;   -9.289;  737.505
458.589;   54.215;   -6.139;  686.606
459.179;   53.915;   -8.729;  717.658
459.769;   51.606;   -9.789;  627.099
460.358;   56.494;  -10.259;  797.262
460.948;   56.996;   -7.299;  689.503
461.538;   58.646;  -10.289;  660.677
462.128;   56.174;  -11.269;  664.934
462.717;   63.309;   -9.368;  710.326
463.307;   66.207;   -7.908;  705.846
463.897;   62.252;   -9.599;  656.942
464.486;   61.709;   -9.769;  837.128
465.076;   66.611;   -8.048;  733.776
465.666;   69.744;   -9.358;  652.900
466.255;   67.435;   -7.919;  785.651
466.845;   65.412;  -11.689;  666.749
467.434;   70.313;   -7.818;  725.873
468.023;   70.921;   -7.678;  658.357
468.613;   67.848;  -10.939;  713.946
469.202;   72.130;  -10.118;  646.507
469.791;   75.929;   -9.108;  737.811
470.381;   78.599;   -6.058;  742.813
470.970;   78.178;  -10.428;  711.099
471.559;   77.289;  -10.268;  733.291
472.148;   81.141;   -8.448;  675.737
472.738;   84.308;   -6.917;  765.466
473.327;   82.976;  -11.978;  637.529
473.916;   82.214;  -11.888;  737.446
474.505;   87.750;   -9.437;  751.703
475.094;   90.453;   -6.747;  806.570
475.683;   89.145;   -9.367;  797.699
476.272;   89.798;  -12.637;  730.632
476.861;   93.833;  -10.027;  706.754
477.449;   99.504;   -8.716;  728.487
478.038;   93.967;   -9.577;  692.513
478.627;   94.754;   -9.718;  714.852
479.216;  102.069;   -8.947;  769.441
479.805;  105.025;   -6.256;  783.375
480.393;  104.622;   -7.937; 1008.945
480.982;  104.111;   -7.717;  874.501
481.571;  110.694;   -9.266;  858.333
482.159;  110.626;   -7.636;  705.386
482.748;  110.508;   -9.667;  821.385
483.336;  115.368;  -10.376;  858.209
483.925;  116.204;   -7.147;  774.373
484.513;  122.835;   -7.996;  758.962
485.102;  120.030;  -10.027;  810.965
485.690;  128.389;  -10.446; 1011.050
486.278;  129.825;   -8.446;  979.329
486.867;  130.683;   -6.356;  809.662
487.455;  133.131;   -9.136;  898.229
488.043;  134.258;  -10.646;  748.361
488.631;  144.523;   -7.456; 1005.079
489.220;  149.319;   -6.636;  908.626
489.808;  148.660;  -11.036;  741.415
490.396;  155.858;  -10.246;  914.645
490.984;  163.309;   -8.556;  830.161
491.572;  174.280;   -5.886;  940.315
492.160;  180.825;   -9.486;  919.081
492.748;  193.138;  -10.976;  884.341
493.336;  217.553;   -8.776; 1019.693
493.924;  243.022;   -5.465;  958.077
494.512;  274.131;   -9.986; 1066.638
495.100;  318.173;  -10.636; 1103.280
495.687;  374.729;  -10.885; 1206.373
496.275;  440.804;   -8.126; 1150.796
496.863;  528.378;  -10.586; 1281.171
497.451;  635.403;  -11.926; 1386.805
498.038;  754.729;  -10.885; 1556.729
498.626;  887.257;   -6.315; 1741.407
499.214; 1039.806;   -7.326; 2016.609
499.801; 1228.956;  -11.906; 2220.633
500.389; 1424.272;  -10.466; 2312.494
500.976; 1677.078;   -5.236; 2744.849
501.564; 2071.350;   -8.936; 3148.565
502.151; 2651.439;  -13.176; 3515.999
502.738; 3260.758;  -10.646; 3971.274
503.326; 3708.936;   -9.525; 4403.796
503.913; 3993.339;  -10.856; 5161.749
504.500; 4438.052;  -11.586; 5986.420
505.088; 5056.167;  -10.336; 6381.201
505.675; 5331.922;   -6.355; 6925.547
506.262; 5808.461;   -9.046; 7619.060
506.849; 6296.136;  -10.416; 8733.969
507.436; 6545.925;  -10.305; 9790.121
508.023; 7271.130;   -5.496; 9985.472
508.610; 8067.477;   -7.856;10434.618
509.197; 9460.626;  -10.097;11198.435
509.784;10858.964;  -10.886;12391.194
510.371;11924.479;   -9.315;13603.713
510.958;12642.103;   -9.936;14426.586
511.545;12650.946;   -9.326;15243.775
512.132;13319.938;  -10.075;15945.876
512.719;14849.034;   -7.796;16340.369
513.305;17287.375;  -10.606;18011.766
513.892;18118.078;  -11.486;19754.971
514.479;19097.188;   -9.126;20967.805
515.066;19999.293;   -6.026;22299.793
515.652;19712.793;   -8.466;22908.660
516.239;20495.320;  -10.886;23798.875
516.825;22358.383;  -11.496;25567.275
517.412;23716.570;   -5.796;28154.959
517.998;23896.621;  -10.506;28344.111
518.585;23519.926;  -10.076;27134.219
519.171;23662.379;   -8.315;27268.576
519.758;24522.100;   -8.596;28964.129
520.344;25717.287;   -8.466;30664.494
520.930;27723.250;  -11.006;32550.605
521.516;28680.756;  -10.495;35422.895
522.103;29392.906;   -5.526;38280.004
522.689;30235.363;   -8.746;37835.117
523.275;29119.174;  -11.376;37288.613
523.861;27396.262;  -11.156;37281.395
524.447;27319.654;   -8.135;37846.949
525.033;30574.414;   -7.896;38321.949
525.619;36390.285;  -12.476;38579.285
526.205;38782.602;   -9.516;40622.875
526.791;38901.441;   -6.926;42258.836
527.377;39795.820;   -8.346;42966.902
527.963;41166.074;   -8.717;42018.949
528.549;40947.309;  -11.016;42476.828
529.135;40161.738;   -8.536;41854.852
529.721;39183.113;   -9.666;41237.711
530.306;38802.805;  -10.066;41259.445
530.892;37135.168;  -11.356;41506.047
531.478;38134.836;   -6.596;43559.613
532.063;40597.953;   -8.836;47695.563
532.649;42485.559;  -10.047;50808.324
533.235;44017.922;   -9.746;51787.500
533.820;45800.020;   -6.566;52145.035
534.406;47420.285;  -10.817;51133.488
534.991;49097.391;   -9.416;49996.805
535.576;44431.188;   -9.036;48882.852
536.162;43396.973;   -6.156;46942.285
536.747;44343.656;  -11.607;45711.746
537.333;45884.188;  -11.787;48510.180
537.918;46236.426;  -12.437;50439.891
538.503;44842.219;   -7.196;50863.711
539.088;45905.055;  -10.556;50906.922
539.673;46877.887;   -8.767;52621.965
540.259;44430.730;  -10.026;52368.094
540.844;42445.359;   -7.416;50879.109
541.429;42324.734;   -9.467;52077.777
542.014;41662.059;   -9.527;52716.695
542.599;39987.875;   -9.946;52363.281
543.184;36885.695;   -7.927;53187.137
543.769;37992.777;   -9.297;54697.605
544.354;41188.953;  -10.127;53913.914
544.938;43626.660;   -9.267;49680.164
545.523;46045.492;   -6.506;47386.277
546.108;48416.309;   -9.787;49151.949
546.693;48899.996;  -11.587;51384.637
547.278;47915.844;  -10.986;51853.254
547.862;45384.148;   -8.206;51173.750
548.447;45211.656;  -10.067;51691.395
549.031;49258.727;   -9.637;52456.703
549.616;50217.074;   -9.926;52714.516
550.201;48378.211;   -6.347;52414.598
550.785;46368.863;   -7.917;52355.059
551.370;41328.777;  -10.867;54589.453
551.954;44408.738;   -9.047;58267.348
552.538;48239.391;   -7.827;59062.176
553.123;47560.422;  -10.287;58115.285
553.707;46402.324;  -12.178;56556.285
554.291;47213.414;   -8.717;56201.668
554.876;47462.543;   -7.457;55335.762
555.460;47271.852;  -10.387;54155.703
556.044;46734.988;   -9.618;53721.484
556.628;45925.012;  -11.567;53731.016
557.212;47846.000;   -8.097;54312.531
557.796;46974.734;  -11.077;53797.773
558.380;45055.621;  -11.108;56145.984
558.964;42340.953;   -9.057;57277.930
559.548;40812.793;   -6.977;56459.641
560.132;41527.531;  -11.457;54434.543
560.716;42029.934;  -11.378;54800.617
561.300;42796.063;   -9.577;57606.945
561.884;44005.262;   -7.127;58972.445
562.467;46530.133;   -7.118;57327.570
563.051;45601.293;  -13.358;54962.434
563.635;45624.574;  -10.178;52594.473
564.219;46194.914;   -7.837;50610.410
564.802;45303.199;  -11.398;49551.180
565.386;44204.160;  -12.788;48370.953
565.969;42946.957;   -9.077;48178.871
566.553;43764.430;   -6.207;49957.305
567.136;44176.867;   -8.568;50369.594
567.720;44071.484;  -11.868;49492.004
568.303;43842.969;   -8.268;50616.352
568.887;42288.531;   -8.698;50727.148
569.470;41907.211;   -6.808;51698.379
570.053;39471.746;  -13.188;52122.078
570.637;37258.391;  -12.037;52536.438
571.220;37481.512;   -8.577;51186.098
571.803;38927.871;   -8.498;51032.762
572.386;38378.328;  -10.498;49609.887
572.969;38341.828;   -9.388;48285.926
573.552;38140.527;   -8.338;47624.285
574.135;38725.867;   -8.518;45498.641
574.718;39043.980;  -13.628;41970.434
575.301;36080.844;  -10.893;41447.137
575.884;33117.703;   -8.158;40923.836
576.467;36002.473;  -10.328;45267.723
577.050;36636.297;  -13.058;48175.543
577.633;37459.512;   -9.458;47729.328
578.216;36648.879;   -8.928;47579.793
578.799;34801.641;   -9.358;47820.996
579.381;34114.227;  -11.388;48115.551
579.964;33619.488;  -11.718;47333.766
580.547;35053.656;   -8.588;46668.969
581.129;35911.961;   -8.859;44466.141
581.712;34328.375;  -10.729;44164.922
582.294;34565.824;  -11.118;46477.855
582.877;34851.375;   -5.218;48244.254
583.459;35283.184;   -8.679;47437.895
584.042;34657.188;  -10.709;46943.219
584.624;34818.727;  -11.669;46792.227
585.206;38264.871;   -8.218;46557.250
585.789;37164.938;  -10.569;45793.773
586.371;35693.773;  -11.859;43836.391
586.953;33100.141;  -10.719;42972.492
587.536;31440.967;   -7.198;42487.211
588.118;33452.480;   -8.720;42086.414
588.700;34717.957;  -10.439;43389.930
589.282;33888.289;   -9.198;43646.039
589.864;33366.227;   -9.199;43438.109
590.446;32633.523;  -11.319;43151.926
591.028;33694.465;  -11.159;42781.867
591.610;33892.887;  -11.779;42839.098
592.192;30636.385;   -7.668;42820.402
592.774;29850.328;  -11.949;40724.277
593.356;29454.113;  -12.129;39874.789
593.937;30022.248;  -10.669;39980.648
594.519;30631.688;   -6.509;42069.633
595.101;33348.852;  -10.849;42976.031
595.683;35564.508;  -11.679;44084.441
596.264;34127.203;   -9.049;43478.797
596.846;35392.539;   -8.849;43803.672
597.427;37156.789;   -9.570;42986.934
598.009;34795.051;  -12.620;42832.219
598.591;31604.270;  -10.039;42580.086
599.172;30730.463;  -10.369;43061.805
599.753;31900.074;   -9.140;41691.469
600.335;32174.258;  -11.430;40692.520
600.916;31100.984;   -9.939;39982.422
601.498;33165.047;   -8.479;40318.617
602.079;33181.617;  -10.920;40670.609
602.660;32448.789;  -11.480;41450.898
603.241;32601.893;  -11.699;41137.738
603.823;32885.000;   -9.579;38868.797
604.404;32067.975;  -10.620;38182.785
604.985;30983.543;  -10.450;38078.047
605.566;30695.316;   -9.129;38056.633
606.147;32111.869;   -7.510;37020.418
606.728;31982.561;  -10.660;37883.359
607.309;31241.564;  -11.740;38748.273
607.890;30220.805;   -9.759;38850.230
608.471;28851.279;   -8.250;37457.918
609.051;29859.479;   -9.240;36066.457
609.632;30010.154;  -12.120;35991.074
610.213;28884.711;   -9.110;37402.641
610.794;29475.645;   -8.030;38383.363
611.374;30048.922;   -8.110;40562.387
611.955;30767.619;  -13.560;38533.727
612.536;30493.504;  -11.400;36951.789
613.116;31649.893;   -8.070;37197.891
613.697;31396.824;  -10.830;38411.125
614.277;29700.193;  -11.641;38673.938
614.858;28582.855;  -13.310;37075.863
615.438;29014.205;   -7.460;35092.906
616.019;29207.699;   -7.601;33666.301
616.599;29068.834;  -12.020;34189.023
617.179;29124.588;  -11.780;36952.047
617.760;31422.434;   -8.570;39582.574
618.340;33424.074;  -11.471;38943.977
618.920;31910.822;  -11.170;37594.156
619.500;30529.400;  -11.071;37866.938
620.080;30959.330;   -7.750;37869.043
620.660;32074.285;  -12.711;36868.617
621.241;29830.773;  -10.211;36352.309
621.821;28561.764;  -10.961;35459.520
622.401;29848.947;   -7.720;35207.414
622.980;31307.686;   -8.981;35980.422
623.560;32260.061;   -9.331;37351.328
624.140;28754.596;   -9.850;34388.582
624.720;24718.318;   -7.451;32368.764
625.300;22991.602;   -9.070;32638.629
625.880;25846.189;  -12.601;34599.035
626.459;29925.875;  -11.751;36831.738
627.039;31087.137;   -9.281;38299.098
627.619;31364.297;   -8.801;38289.574
628.198;31892.645;  -12.071;37220.695
628.778;32826.250;   -9.461;37632.563
629.357;33916.578;   -8.491;38003.012
629.937;33121.395;   -9.721;38402.039
630.516;32810.746;   -9.951;37868.801
631.096;31752.271;  -11.731;35760.410
631.675;31921.035;   -8.572;35225.219
632.254;32805.441;  -11.282;35130.289
632.834;33165.449;  -13.322;35794.570
633.413;33983.500;  -10.301;35788.922
633.992;34156.563;   -8.582;34532.863
634.571;32356.092;   -8.352;33590.113
635.151;32043.752;  -11.912;34943.863
635.730;31239.893;  -10.511;35352.523
636.309;31618.873;   -7.731;35366.605
636.888;31654.111;   -9.952;36165.637
637.467;31230.443;  -11.672;37515.902
638.046;32605.641;   -8.901;39288.695
638.625;31545.973;   -7.912;38279.699
639.204;32056.691;  -10.022;37741.598
639.782;31693.646;  -12.252;38364.551
640.361;29135.807;  -10.041;36740.621
640.940;27239.008;  -11.161;34950.082
641.519;27576.018;   -9.701;34137.398
642.097;29885.172;  -11.271;35654.258
642.676;30032.623;   -8.651;35637.957
643.255;32718.168;   -8.711;36567.074
643.833;34853.172;   -9.581;37809.434
644.412;33497.996;  -13.711;37337.293
644.990;31284.041;  -11.811;37018.531
645.569;31080.629;   -9.411;36518.469
646.147;31847.975;  -10.291;36186.430
646.726;31147.816;  -12.401;36267.688
647.304;29706.078;  -10.411;36647.625
647.882;30998.340;   -9.651;39286.742
648.461;33436.922;   -9.631;39157.703
649.039;33682.613;  -11.881;35412.883
649.617;33429.602;   -9.661;34744.918
650.195;33913.746;   -9.301;35403.098
650.773;32791.777;  -10.511;35053.797
651.352;32219.643;  -11.521;33756.816
651.930;30363.510;  -12.211;31868.773
652.508;25058.000;   -9.171;33121.551
653.086;24065.301;   -9.371;33564.793
653.663;28964.605;  -13.161;34054.668
654.241;30649.779;  -13.031;35693.309
654.819;32934.910;   -9.371;36422.906
655.397;32266.168;  -10.511;38213.484
655.975;31871.529;  -10.371;39507.625
656.553;32876.926;  -10.051;39498.223
657.130;31892.330;  -10.061;40395.480
657.708;29989.143;   -9.561;39242.020
658.286;29584.930;  -11.511;38920.020
658.863;28424.309;  -10.261;40202.898
659.441;29959.238;   -7.531;39677.938
660.018;31638.063;   -9.501;40413.355
660.596;31389.271;  -13.301;39931.414
661.173;29536.838;  -11.211;39604.531
661.750;29467.727;   -9.951;39700.070
662.328;31387.676;   -9.390;39292.809
662.905;30464.500;  -11.330;38235.648
663.482;26233.217;   -9.050;36212.305
664.060;23804.100;   -8.240;35944.945
664.637;27991.740;  -10.050;35170.785
665.214;31321.324;  -11.760;34197.523
665.791;32382.496;  -10.530;34549.520
666.368;32590.393;   -9.690;35118.578
666.945;32880.000;   -9.320;36019.418
667.522;31022.145;  -11.860;36048.438
668.099;30473.889;  -10.770;36243.914
668.676;32801.391;   -6.260;35958.875
669.253;34162.387;   -7.000;37384.730
669.830;34801.633;  -10.190;36779.629
670.407;34114.008;   -9.550;35231.289
670.984;32661.068;   -9.260;35544.270
671.560;29807.535;   -9.280;35466.867
672.137;26471.531;  -11.810;34280.863
672.714;25624.580;  -11.490;34632.863
673.290;30246.869;   -7.740;35135.422
673.867;33947.109;  -10.660;36114.480
674.443;32946.195;  -12.230;36152.859
675.020;30792.258;  -10.450;35327.238
675.596;29454.557;   -9.260;35795.176
676.173;30096.359;  -10.780;35430.355
676.749;30934.934;  -13.690;33549.516
677.326;29650.666;  -11.980;32210.012
677.902;27907.307;   -8.630;32068.871
678.478;27935.795;  -10.730;32583.891
679.054;29480.129;  -10.520;32088.928
679.631;30568.723;  -11.920;30978.848
680.207;30559.225;   -7.490;33160.887
680.783;30649.785;   -9.860;35570.363
681.359;32789.344;  -13.380;36125.184
681.935;32770.805;  -12.480;35240.922
682.511;30107.502;   -7.900;34429.961
683.087;28857.410;   -7.710;34463.680
683.663;29710.375;  -11.480;34648.898
684.239;30690.443;  -14.090;34546.457
684.815;30279.428;   -7.560;35586.375
685.390;28493.662;   -9.910;35821.895
685.966;28694.410;  -11.159;35085.871
686.542;27747.643;  -11.169;34198.230
687.118;28281.072;   -5.959;32847.707
687.693;31528.838;  -10.329;32794.027
688.269;32086.191;  -12.059;33072.367
688.844;32153.348;  -10.909;33141.664
689.420;34068.219;   -8.019;33965.742
689.995;32385.752;   -8.399;34655.523
690.571;30217.656;  -10.949;33576.742
691.146;29667.738;   -9.619;32657.219
691.722;31267.133;   -8.999;32526.979
692.297;31386.912;  -11.589;33014.617
692.872;30223.199;  -11.739;34012.254
693.448;30295.941;  -11.059;34237.434
694.023;30071.424;  -10.139;34142.672
694.598;27368.520;   -9.029;34132.031
695.173;27428.213;  -13.319;34205.250
695.748;29666.875;  -10.169;32882.488
696.323;28951.488;   -8.339;32864.906
696.898;27689.014;   -8.169;33170.004
697.473;28243.084;  -12.309;32432.984
698.048;28307.408;  -10.989;31649.303
698.623;27956.633;   -9.329;30778.141
699.198;28029.967;   -9.849;31140.119
699.773;28802.564;  -12.329;31764.299
700.348;31148.586;  -10.389;31780.816
700.922;30951.982;   -9.269;32046.375
701.497;28478.035;   -9.329;32603.574
702.072;29300.322;  -10.789;34799.871
702.646;28866.678;  -10.839;35793.172
703.221;29976.029;   -9.099;35201.590
703.795;30791.508;  -10.939;34764.527
704.370;31221.592;  -12.859;34307.367
704.944;31423.320;  -11.559;33509.887
705.519;30760.738;   -7.939;31388.584
706.093;32446.063;  -10.499;31340.104
706.668;31494.922;  -11.289;32630.281
707.242;30798.273;  -11.509;32728.779
707.816;29260.252;   -9.639;32947.238
708.390;27359.061;  -11.429;33277.855
708.965;26961.439;  -11.869;33834.336
709.539;28307.854;  -11.689;33709.273
710.113;28773.557;  -10.478;33044.313
710.687;28769.334;  -10.228;31953.992
711.261;28381.605;  -13.698;30505.949
711.835;28461.490;  -13.378;30262.369
712.409;28653.158;   -9.698;31254.447
712.983;27723.602;  -11.898;32754.986
713.557;27396.447;  -15.138;34018.824
714.131;25326.051;  -14.098;34579.625
714.704;23647.230;   -9.958;33890.262
715.278;24232.959;  -10.028;33531.102
715.852;24709.033;  -11.148;33601.660
716.425;25880.086;   -9.068;33515.117
716.999;25600.559;  -10.038;33185.555
717.573;24910.484;   -9.798;33905.996
718.146;25911.709;  -12.378;35199.293
718.720;27196.375;  -11.918;35060.551
719.293;28552.463;   -8.088;34973.230
719.867;29178.385;  -10.888;36394.449
720.440;28710.123;  -11.938;36663.008
721.013;29291.424;  -12.818;35102.426
721.587;28418.295;  -10.298;33985.266
722.160;27487.908;  -10.048;33524.965
722.733;27193.953;  -12.108;32987.043
723.306;26968.422;  -10.818;33066.301
723.880;27916.109;   -8.908;33399.500
724.453;27037.807;   -9.878;33468.297
725.026;25727.443;  -11.188;33816.637
725.599;26490.156;  -11.678;32797.996
726.172;28200.617;   -9.618;33187.434
726.745;27440.258;   -8.258;35136.613
727.318;26520.799;  -12.978;35751.730
727.891;25393.980;  -12.148;35890.430
728.463;24992.711;   -8.968;34822.090
729.036;24969.342;  -10.188;32895.086
729.609;26468.426;  -11.788;31823.225
730.182;26770.783;  -11.788;31445.283
730.754;24829.211;  -10.268;32373.223
731.327;23180.895;   -9.998;33676.820
731.900;22780.375;  -12.228;33417.000
732.472;23960.635;  -13.848;31978.498
733.045;25260.855;   -8.698;30368.777
733.617;24125.531;  -10.607;30574.215
734.190;25195.736;  -11.507;31280.975
734.762;26792.287;  -13.647;31674.412
735.334;24668.951;   -9.767;31247.291
735.907;23735.299;   -9.897;29876.211
736.479;24470.465;  -11.637;29808.488
737.051;25825.254;   -9.567;30233.547
737.623;26041.502;   -8.187;31469.086
738.195;25777.734;  -11.187;31784.225
738.768;25958.455;  -12.337;32120.523
739.340;24754.264;  -12.227;32094.342
739.912;23750.596;  -11.057;31312.680
740.484;23513.457;  -10.207;31946.238
741.056;21931.930;  -10.047;32984.059
741.628;20939.865;  -13.627;33897.715
742.199;21591.607;   -7.177;33213.016
742.771;24395.674;  -10.797;31369.113
743.343;26810.619;  -11.997;31865.473
743.915;26776.818;  -12.867;32388.631
744.487;24814.502;   -7.617;31079.568
745.058;23423.402;   -9.557;30570.107
745.630;23674.607;   -9.877;29970.127
746.201;23396.662;  -14.177;29186.766
746.773;22150.217;   -9.237;28805.723
747.344;22443.701;   -9.847;29591.223
747.916;23075.434;  -11.657;31412.201
748.487;22753.705;  -10.587;32194.898
749.059;22561.379;   -8.707;32533.719
749.630;22382.848;  -10.537;32158.518
750.201;23181.654;  -11.687;30855.395
750.773;23639.168;  -11.647;28622.555
751.344;22876.068;   -7.147;28405.732
751.915;21947.434;   -9.757;28461.551
752.486;21626.389;  -12.427;27842.850
753.057;21039.266;  -12.227;27845.008
753.628;20216.984;  -10.417;27728.107
754.199;19158.820;  -11.767;27381.086
754.770;19162.564;  -11.187;25882.203
755.341;20378.252;  -10.507;25886.184
755.912;20400.576;   -9.387;26050.861
756.483;18756.145;  -10.647;26798.779
757.054;18456.334;  -11.837;27048.238
757.625;19224.791;  -12.716;26294.838
758.195;19984.053;   -9.666;26142.076
758.766;21439.395;   -8.656;26392.234
759.337;21310.930;  -12.856;26334.594
759.907;20701.793;  -13.366;27579.652
760.478;20976.455;   -8.576;28352.770
761.048;20510.764;  -10.526;27325.088
761.619;20646.418;  -11.116;26460.428
762.189;20825.484;  -12.136;26029.826
762.760;19975.469;   -9.456;26430.145
763.330;19345.322;   -7.136;26670.902
763.900;20135.752;  -11.786;26603.021
764.471;19684.820;  -11.546;25542.740
765.041;17892.139;   -8.096;24358.459
765.611;16588.576;   -8.876;23991.297
766.181;16033.131;  -12.196;24470.236
766.751;16307.158;  -11.636;24845.975
767.321;17367.109;  -10.156;24533.633
767.891;18082.684;  -11.766;24916.492
768.461;17703.842;  -14.936;24776.771
769.031;17416.902;  -12.356;24757.988
769.601;17629.154;   -7.526;24181.088
770.171;18025.488;  -10.766;23670.387
770.741;17357.650;  -13.176;22960.045
771.311;16398.680;  -10.616;22917.523
771.880;16154.438;   -9.576;23562.941
772.450;15904.643;  -10.336;24216.500
773.020;16382.867;  -13.516;24140.398
773.589;16551.473;  -13.466;24414.857
774.159;16289.679;   -8.686;23858.717
774.729;16549.240;   -9.476;22942.135
775.298;16163.608;  -13.666;22324.033
775.867;15170.279;  -11.716;21140.313
776.437;14423.374;   -9.906;20838.092
777.006;14493.534;  -12.166;20599.510
777.576;13720.194;  -12.356;20508.809
778.145;13591.519;  -11.646;20732.947
778.714;13599.917;   -8.226;21062.465
779.283;13653.460;   -9.556;20949.664
779.853;14039.616;  -14.116;20508.623
780.422;13916.353;  -11.506;20649.082
780.991;13948.477;   -9.556;21527.520
781.560;13651.652;   -9.095;22632.658
782.129;12165.878;  -12.135;23048.277
782.698;11423.593;  -10.865;23438.555
783.267;11527.861;   -9.335;23267.734
783.836;12274.201;  -11.045;22415.133
784.404;13276.086;  -13.865;20443.152
784.973;13094.638;  -13.095;19699.150
785.542;12488.742;  -11.575;19763.828
786.111;12245.326;   -9.705;20341.408
786.679;12060.413;  -12.105;20207.967
787.248;11793.955;  -12.455;19516.465
787.817;11055.580;  -11.535;18900.363
788.385;11407.207;   -9.765;17879.121
788.954;12436.760;  -14.005;17658.301
789.522;12908.487;  -11.955;17788.879
790.090;12448.120;  -10.135;18118.277
790.659;12410.901;  -10.975;18338.736
791.227;12546.154;  -13.375;18508.615
791.795;12269.518;  -12.375;17898.254
792.364;12132.292;  -10.725;17295.133
792.932;12268.679;   -9.715;16822.051
793.500;12320.028;  -12.675;17040.148
794.068;12120.913;  -13.495;17179.787
794.636;10827.332;  -10.885;16664.246
795.204; 9925.755;  -11.045;16524.545
795.772; 9794.081;  -13.175;17274.564
796.340;10735.771;  -12.445;17891.002
796.908;11022.572;   -9.735;17648.561
797.476;11075.242;   -9.815;17064.080
798.044;10992.728;  -13.985;16672.777
798.612;10701.343;  -13.115;17023.996
799.180;10287.162;  -10.185;16561.615
799.747; 9567.820;   -9.055;15962.773
800.315; 8514.298;  -12.385;15296.992
800.883; 8122.614;  -15.035;14801.771
801.450; 8651.468;  -10.365;14534.430
802.018; 9548.546;   -9.855;14173.248
802.585;10314.923;  -11.905;14029.547
803.153;10130.608;  -11.585;13836.846
803.720; 9424.980;   -9.095;13567.324
804.287; 9021.490;   -9.135;13360.622
804.855; 9266.548;  -11.604;13681.981
805.422; 9730.350;  -11.794;13536.560
805.989; 9038.366;  -10.734;13355.958
806.556; 8782.901;  -10.444;13747.896
807.124; 8908.077;  -12.764;13987.376
807.691; 9007.164;  -12.964;14038.674
808.258; 9372.120;  -11.134;14120.152
808.825; 9542.008;   -9.854;13860.111
809.392; 8955.487;  -10.504;13268.790
809.959; 8490.890;  -13.054;12680.389
810.526; 8212.915;   -8.294;12427.308
811.093; 8249.709;   -8.394;12030.105
811.659; 7991.267;  -12.304;11653.664
812.226; 7394.899;  -13.944;11637.183
812.793; 7276.508;  -10.484;11611.521
813.360; 7472.297;  -10.144;11885.181
813.926; 7423.049;  -11.684;12770.539
814.493; 7230.038;  -13.644;12677.638
815.060; 6832.551;   -9.724;11974.336
815.626; 6376.984;   -9.854;11594.715
816.193; 6396.943;  -13.254;11579.474
816.759; 6408.691;  -13.204;11666.972
817.325; 6704.702;   -9.434;11325.530
817.892; 6742.053;  -10.134;11105.369
818.458; 6366.415;  -13.474;10843.928
819.024; 6037.506;  -11.854;10714.406
819.591; 5942.162;  -10.244;10469.165
820.157; 5828.021;  -10.704;10235.523
820.723; 5953.441;  -12.324;10847.563
821.289; 6378.964;   -9.444;11040.980
821.855; 6626.414;   -8.374;10357.100
822.421; 6579.282;  -10.234; 9978.918
822.987; 6523.893;  -13.294; 9754.177
823.553; 6710.075;  -10.884;10065.755
824.119; 6659.087;   -8.884;10036.294
824.685; 6385.344;   -6.784;10029.192
825.251; 5955.371;  -12.004;10199.230
825.816; 5966.519;  -11.474; 9820.189
826.382; 6126.749;   -9.174; 9297.248
826.948; 6080.122;   -9.214; 9381.347
827.513; 5801.909;  -10.774; 9450.726
828.079; 5521.579;  -11.924; 9472.444
828.645; 5421.107;  -10.543; 9292.643
829.210; 5424.954;  -10.533; 9065.341
829.776; 5229.381;  -10.753; 9132.620
830.341; 5061.077;  -10.173; 9092.878
830.906; 4950.610;  -10.743; 9078.557
831.472; 5053.778;  -11.113; 8534.535
832.037; 5090.120;  -10.603; 8677.874
832.602; 5076.249;  -13.323; 8628.692
833.167; 5122.125;  -10.823; 8879.031
833.733; 4833.903;  -10.113; 9189.790
834.298; 4687.172;  -13.583; 9052.608
834.863; 4841.805;  -12.703; 8895.087
835.428; 4906.630;  -10.523; 8824.266
835.993; 4809.736;   -6.963; 8845.385
836.558; 4609.526;  -10.763; 8888.563
837.123; 4523.802;   -9.903; 8966.582
837.688; 4440.875;   -9.913; 8617.860
838.253; 4492.365;  -10.283; 8590.699
838.817; 4774.075;  -12.963; 8443.797
839.382; 4835.542;  -14.243; 8799.356
839.947; 4723.295;  -10.733; 8810.595
840.511; 4487.778;   -9.383; 8796.394
841.076; 4448.013;  -12.563; 8347.231
841.641; 4448.258;  -12.953; 8224.330
842.205; 4051.888;   -7.043; 8223.349
842.770; 3846.522;   -8.163; 8622.107
843.334; 3953.050;  -12.503; 8410.386
843.898; 4189.144;  -11.693; 8337.465
844.463; 4255.286;  -10.203; 8506.283
845.027; 4135.367;   -9.533; 8280.962
845.591; 4010.619;  -13.443; 8231.141
846.156; 3946.580;  -13.143; 7969.179
846.720; 3845.196;   -9.433; 7768.278
847.284; 3398.870;  -11.033; 7630.957
847.848; 3039.792;  -10.403; 7472.395
848.412; 3130.513;  -11.553; 7437.394
848.976; 3527.633;   -8.393; 7674.592
849.540; 3818.560;   -8.713; 7836.011
850.104; 3798.282;  -12.463; 7913.669
850.668; 3722.392;  -12.973; 7694.508
851.232; 3505.257;  -10.793; 7756.887
851.796; 3366.029;  -10.662; 7926.545
852.359; 3531.115;  -13.082; 7827.844
852.923; 3556.149;  -12.192; 7641.163
853.487; 3522.310;  -11.912; 7342.501
854.050; 3624.318;  -10.892; 7042.820
854.614; 3593.201;  -13.992; 7151.338
855.177; 3387.123;  -11.732; 7105.077
855.741; 3211.359;   -8.962; 6989.675
856.304; 3194.105;   -9.442; 6596.634
856.868; 3193.160;  -14.192; 6356.272
857.431; 3229.029;  -12.702; 6468.571
857.995; 3497.064;   -9.942; 6373.210
858.558; 3608.223;   -9.112; 6324.448
859.121; 3213.805;  -12.932; 6408.327
859.684; 2884.909;  -13.442; 6347.886
860.247; 2798.059;  -10.632; 6321.264
860.810; 2935.488;  -11.272; 6301.903
861.374; 3094.167;   -9.832; 6607.881
861.937; 3124.405;  -11.762; 6408.200
862.500; 3138.645;   -9.722; 6572.639
863.062; 3084.771;  -10.512; 6387.297
863.625; 2969.879;  -11.232; 6190.836
864.188; 2810.034;  -14.112; 5807.254
864.751; 2578.394;  -11.302; 5682.413
865.314; 2472.996;  -10.112; 5547.492
865.876; 2617.274;  -12.182; 5500.150
866.439; 2846.521;  -10.722; 5415.909
867.002; 2890.068;   -9.252; 5501.567
867.564; 2725.479;   -9.572; 5413.946
868.127; 2476.404;  -13.142; 5160.325
868.689; 2342.727;  -12.902; 5133.183
869.252; 2245.933;   -9.732; 5252.382
869.814; 2171.615;   -9.432; 5297.141
870.377; 2272.160;  -11.552; 5390.919
870.939; 2378.421;   -9.052; 5599.898
871.501; 2354.433;  -10.982; 5248.336
872.063; 2427.992;  -12.292; 4854.235
872.626; 2507.257;  -14.912; 4817.074
873.188; 2590.363;  -13.112; 4987.732
873.750; 2598.662;  -13.442; 4868.651
874.312; 2395.777;   -9.402; 4779.330
874.874; 2025.297;  -11.062; 4866.348
875.436; 1652.524;  -13.931; 4718.887
875.998; 1279.225;   -9.561; 4660.005
876.560; 1027.423;  -11.321; 4462.964
877.122;  979.465;  -12.221; 4145.042
877.683; 1058.873;  -12.191; 4056.481
878.245; 1212.699;  -12.101; 3950.740
878.807; 1374.831;   -8.971; 4058.958
879.369; 1452.478;  -12.071; 3954.677
879.930; 1408.622;  -14.621; 3941.495
880.492; 1397.055;  -10.311; 4067.014
881.053; 1391.123;  -10.901; 3859.633
881.615; 1382.809;  -14.411; 3776.071
882.176; 1378.016;  -13.761; 3734.750
882.738; 1399.328;   -9.181; 3678.489
883.299; 1370.906;  -11.791; 3405.407
883.860; 1296.598;  -13.121; 3351.106
884.422; 1213.675;  -11.211; 3394.044
884.983; 1157.856;  -10.091; 3166.443
885.544; 1131.042;   -8.461; 3189.802
886.105; 1089.301;  -12.361; 3160.360
886.666; 1028.279;  -14.141; 3093.059
887.227; 1007.418;  -11.361; 2941.957
887.788;  992.856;  -11.401; 2974.836
888.349;  925.741;  -13.791; 2721.214
888.910;  857.399;  -13.191; 2696.493
889.471;  811.461;   -9.881; 2560.172
890.032;  762.139;   -9.881; 2558.190
890.593;  726.289;  -10.371; 2567.669
891.153;  711.232;  -13.301; 2460.307
891.714;  692.217;  -11.431; 2372.046
892.275;  648.292;  -11.291; 2309.505
892.835;  640.631;  -11.471; 2382.543
893.396;  638.779;  -11.541; 2295.502
893.956;  608.217;  -11.181; 2162.420
894.517;  548.546;  -11.741; 2125.439
895.077;  480.673;  -11.671; 2086.978
895.638;  436.311;  -11.311; 2126.316
896.198;  427.375;   -9.831; 1838.275
896.758;  428.922;   -8.421; 1892.813
897.319;  411.188;  -12.351; 1792.232
897.879;  377.550;  -13.511; 1762.751
898.439;  355.837;  -12.001; 1661.149
898.999;  345.845;  -10.180; 1781.468
899.559;  335.390;  -12.030; 1703.347
900.119;  328.912;  -15.710; 1537.525
900.679;  322.586;   -8.900; 1638.384
901.239;  305.773;   -8.340; 1527.902
901.799;  282.101;  -13.910; 1456.441
902.359;  265.669;  -13.460; 1357.140
902.919;  258.497;  -11.490; 1331.118
903.479;  253.845;  -12.110; 1317.257
904.038;  248.551;  -11.720; 1262.595
904.598;  237.362;  -13.610; 1152.034
905.158;  226.177;  -11.040; 1240.893
905.717;  217.400;  -10.900; 1233.691
906.277;  210.546;  -15.080; 1217.330
906.836;  206.460;  -13.380; 1222.408
907.396;  204.304;  -10.780; 1193.047
907.955;  198.756;   -8.500; 1182.526
908.515;  192.730;  -12.760; 1099.364
909.074;  188.155;  -11.900; 1092.863
909.633;  184.373;   -8.950; 1069.121
910.192;  182.430;   -8.770; 1196.460
910.752;  177.873;  -12.390; 1029.960
911.311;  173.856;  -13.680; 1009.780
911.870;  171.612;  -12.370;  971.460
912.429;  169.970;  -10.900; 1094.080
912.988;  165.479;  -11.690; 1081.060
913.547;  160.948;  -13.240;  940.380
914.106;  161.476;  -11.990;  999.420
914.665;  159.386;   -9.990;  984.020
915.224;  155.635;  -12.880; 1035.760
915.782;  153.868;  -12.350;  922.560
916.341;  156.015;   -9.110; 1049.840
916.900;  153.539;   -9.270;  925.260
917.458;  149.295;  -13.240;  884.220
918.017;  145.140;  -13.550;  942.600
918.576;  142.611;  -12.320;  904.440
919.134;  140.046;  -11.490;  837.980
919.693;  138.376;  -13.670;  893.060
920.251;  140.641;  -15.470;  876.500
920.809;  140.338;  -11.290;  839.580
921.368;  140.032;  -10.210;  885.360
921.926;  139.215;  -12.140;  842.940
922.484;  137.999;  -13.080;  903.360
923.042;  137.096;  -11.720;  880.340
923.601;  139.129;   -7.480;  998.680
924.159;  136.557;  -11.570;  935.560
924.717;  134.908;  -13.840;  841.080
925.275;  137.284;  -10.640;  903.240
925.833;  137.701;  -11.540;  779.320
926.391;  139.331;  -12.960;  938.380
926.949;  138.362;  -14.130;  857.680
927.506;  138.940;  -11.750;  903.500
928.064;  139.899;  -10.250;  877.580
928.622;  137.470;  -13.030;  880.100
929.180;  138.073;  -13.400;  814.180
929.737;  139.108;  -10.700;  808.540
930.295;  139.382;  -10.070;  928.480
930.853;  139.483;  -11.960;  849.100
931.410;  141.146;  -13.120;  821.120
931.968;  144.425;  -10.770;  940.660
932.525;  143.785;  -10.680;  909.380
933.082;  144.297;  -13.130;  811.440
933.640;  151.169;  -13.210;  925.900
934.197;  154.833;  -11.060;  886.360
934.754;  158.022;   -9.580;  897.780
935.312;  157.225;  -14.000;  863.340
935.869;  156.027;  -10.710; 1012.980
936.426;  153.877;   -9.860;  872.800
936.983;  153.805;   -9.710;  889.020
937.540;  154.852;  -13.990;  838.280
938.097;  155.759;  -14.040;  940.120
938.654;  157.218;  -10.310;  898.860
939.211;  156.169;  -10.560;  952.480
939.768;  153.064;  -13.900;  915.420
940.324;  153.675;  -14.760;  904.200
940.881;  158.573;  -10.370;  878.500
941.438;  164.076;   -8.260; 1021.200
941.995;  163.784;  -12.540;  992.560
942.551;  161.083;  -14.670;  875.620
943.108;  160.845;  -10.450;  937.920
943.664;  161.607;  -10.750;  869.340
944.221;  165.368;  -11.550; 1088.140
944.777;  167.083;  -14.770;  869.680
945.334;  170.610;  -12.820;  884.840
945.890;  175.051;  -10.130;  946.480
946.446;  175.797;  -13.470;  947.020
947.003;  175.732;  -12.120;  964.940
947.559;  178.369;   -9.980; 1063.040
948.115;  179.213;   -9.080; 1026.540
948.671;  181.696;  -10.830;  967.300
949.227;  179.025;  -12.440;  859.560
949.783;  171.450;  -12.910;  858.900
950.339;  167.931;  -10.270;  991.000
950.895;  164.638;  -13.630; 1023.840
951.451;  163.758;  -15.100;  925.280
952.007;  164.842;  -11.330;  998.540
952.563;  164.996;  -10.580;  937.780
953.118;  163.529;  -13.440;  904.940
953.674;  160.263;  -12.710;  935.780
954.230;  160.746;  -10.350;  949.640
954.785;  162.997;   -9.190;  936.640
955.341;  160.948;  -11.200;  998.160
955.897;  154.796;  -16.560;  834.660
956.452;  150.910;  -12.570;  953.840
957.008;  146.835;   -7.970; 1083.640
957.563;  144.402;  -11.940; 1009.540
958.118;  144.630;  -13.450;  877.700
958.674;  147.749;  -12.030;  946.780
959.229;  146.581;   -9.410; 1013.980
959.784;  145.951;  -12.000;  832.400
960.339;  144.333;  -14.780; 1001.280
960.894;  136.565;   -9.860;  963.760
961.449;  131.145;   -9.970;  859.960
962.004;  131.512;  -10.900; 1212.840
962.559;  125.930;  -13.150;  860.140
963.114;  124.260;  -13.740;  742.480
963.669;  126.873;   -9.820;  915.500
964.224;  129.436;  -13.890;  874.340
964.779;  129.843;  -12.600;  828.420
965.334;  130.498;  -10.950; 1017.860
965.888;  122.568;  -11.170;  875.360
966.443;  118.469;  -12.540;  972.380
966.998;  117.185;  -15.780;  819.460
967.552;  119.544;   -9.760;  908.380
968.107;  117.245;   -9.060;  868.300
968.661;  115.842;  -11.950;  922.440
969.216;  113.160;  -12.800;  856.280
969.770;  112.505;  -11.210;  917.200
970.324;  111.743;  -11.610;  923.140
970.879;  109.361;  -11.370;  947.180
971.433;  108.554;  -12.540;  952.720
971.987;  107.604;  -11.320;  895.340
972.541;  106.799;  -10.720;  917.100
973.095;  108.115;   -9.680; 1009.460
973.649;  107.283;  -11.440;  809.480
974.203;  107.830;  -11.210;  829.040
974.757;  107.742;  -10.240;  855.220
975.311;  105.550;  -13.720;  872.600
975.865;  106.124;  -13.770;  881.820
976.419;  107.337;  -11.690;  857.400
976.973;  108.420;   -9.510;  849.620
977.526;  106.820;  -12.620;  949.920
978.080;  101.269;  -12.010;  796.780
978.634;  100.053;  -10.170;  921.320
979.187;   96.746;   -9.020;  905.400
979.741;   96.615;   -9.820; 1018.380
980.294;   93.991;  -14.870;  789.160
980.848;   92.574;  -12.380;  717.220
981.401;   92.969;  -10.350;  816.540
981.955;   93.063;  -13.720;  844.300
982.508;   90.812;  -11.490;  746.340
983.061;   91.450;  -10.000;  915.260
983.615;   89.536;  -11.480;  798.800
984.168;   86.178;  -13.220;  770.080
984.721;   85.271;  -13.960;  880.760
985.274;   82.686;  -10.870;  867.500
985.827;   80.452;   -9.790;  834.220
986.380;   78.460;  -13.120;  721.340
986.933;   77.532;  -12.450;  864.800
987.486;   77.762;  -10.210;  861.920
988.039;   77.549;   -8.430;  863.100
988.591;   76.058;  -10.520;  893.260
989.144;   73.347;  -14.860;  737.260
989.697;   74.255;  -13.080;  758.740
990.250;   73.307;  -10.150;  858.100
990.802;   71.270;  -13.430;  755.860
991.355;   71.041;  -12.750;  974.880
991.907;   68.124;  -12.040;  864.320
992.460;   65.207;  -11.330;  753.760
993.012;   62.519;  -13.610;  749.540
993.565;   61.587;  -13.460;  711.360
994.117;   62.879;   -9.360;  950.780
994.669;   60.279;  -11.300;  701.320
995.221;   59.548;  -13.540;  791.920
995.774;   58.886;  -13.430;  787.580
996.326;   58.639;  -12.520;  740.220
996.878;   58.944;  -10.950;  838.420
997.430;   56.935;  -14.300;  699.860
997.982;   55.223;  -13.760;  750.140
998.534;   55.042;  -11.530;  739.060
999.086;   53.767;  -10.310;  738.220
999.638;   52.309;  -12.530;  661.380
1000.190;   51.322;  -11.840;  699.320
1000.741;   51.401;  -10.260;  742.700
1001.293;   51.096;   -8.860;  686.020
1001.845;   49.807;  -13.700;  676.640
1002.396;   49.924;  -12.100;  743.400
1002.948;   50.006;  -12.760;  737.400
1003.500;   48.975;  -10.380;  723.780
1004.051;   48.763;  -11.900;  907.580
1004.603;   46.560;  -12.250;  791.820
1005.154;   43.907;  -13.210;  608.980
1005.705;   43.373;  -10.950;  723.960
1006.257;   42.239;  -13.880;  707.220
1006.808;   42.105;  -12.840;  685.460
1007.359;   41.308;  -10.570;  763.240
1007.910;   40.604;   -9.620;  646.640
1008.461;   39.841;  -13.630;  732.940
1009.013;   38.299;  -17.200;  588.340
1009.564;   40.112;  -10.200;  793.520
1010.115;   38.225;  -12.570;  597.040
1010.665;   37.777;  -15.150;  602.160
1011.216;   37.881;  -14.480;  667.920
1011.767;   37.443;  -11.340;  697.920
1012.318;   37.813;   -9.780;  736.980
1012.869;   35.627;  -12.380;  679.000
1013.419;   35.446;  -15.560;  603.120
1013.970;   36.874;  -11.010;  666.640
1014.521;   36.154;  -11.610;  620.620
1015.071;   36.297;  -13.450;  670.380
1015.622;   35.215;  -13.870;  635.460
1016.172;   34.976;  -11.610;  596.820
1016.723;   34.667;  -12.120;  614.380
1017.273;   35.075;  -13.620;  604.160
1017.823;   33.915;  -14.140;  650.340
1018.374;   33.992;  -12.800;  611.760
1018.924;   33.741;  -12.340;  716.880
1019.474;   33.562;  -11.410;  718.880
1020.024;   32.474;  -14.770;  657.580
1020.574;   34.035;   -9.780;  726.160
1021.124;   34.330;   -8.560;  673.580
1021.674;   31.525;  -15.190;  559.120
1022.224;   33.217;  -13.530;  708.940
1022.774;   32.957;  -13.280;  668.820
1023.324;   33.510;  -10.690;  753.520
1023.874;   33.941;  -10.240;  875.760
1024.423;   30.819;  -12.540;  613.700
1024.973;   31.263;  -10.010;  610.760
1025.523;   30.688;  -10.550;  620.960
1026.072;   29.824;  -13.560;  606.420
1026.622;   29.506;  -15.120;  675.740
1027.172;   31.876;  -11.260;  715.660
1027.721;   29.692;  -11.410;  601.220
1028.270;   29.729;  -13.530;  663.400
1028.820;   29.389;  -13.680;  638.080
1029.369;   29.935;  -13.520;  612.700
1029.918;   29.824;  -10.980;  649.840
1030.468;   28.702;  -13.530;  564.780
1031.017;   29.115;  -13.170;  634.800
1031.566;   27.812;  -12.200;  608.900
1032.115;   28.561;   -9.960;  694.500
1032.664;   27.249;  -13.210;  596.480
1033.213;   28.663;  -12.500;  735.420
1033.762;   28.422;  -11.910;  635.620
1034.311;   27.419;   -9.640;  677.220
1034.860;   27.440;  -13.310;  691.000
1035.408;   27.166;  -11.830;  722.720
1035.957;   28.083;  -12.000;  719.540
1036.506;   25.209;  -11.690;  530.800
1037.055;   29.118;  -10.990;  844.320
1037.603;   25.804;  -15.120;  664.000
1038.152;   25.300;  -12.450;  534.760
1038.700;   26.056;  -10.560;  585.740
1039.249;   25.809;  -11.080;  681.220
1039.797;   25.353;  -12.540;  633.360
1040.345;   26.244;  -11.920;  705.420
1040.894;   25.486;  -11.410;  625.300
1041.442;   25.202;  -14.320;  632.200
1041.990;   24.128;  -16.240;  559.160
1042.538;   23.552;  -11.680;  536.180
1043.087;   24.285;  -10.760;  570.860
1043.635;   25.427;  -11.850;  670.500
1044.183;   23.646;  -15.480;  586.400
1044.731;   23.769;  -11.770;  576.000
1045.279;   23.570;  -13.090;  674.920
1045.827;   24.986;  -12.440;  892.400
1046.374;   22.473;  -13.840;  515.420
1046.922;   22.584;  -13.220;  590.580
1047.470;   24.283;  -10.230;  691.300
1048.018;   23.373;  -14.590;  647.960
1048.565;   24.760;  -12.050;  708.600
1049.113;   22.981;  -11.650;  557.000
1049.660;   22.304;  -10.510;  629.660
1050.208;   22.262;  -13.310;  675.640
1050.755;   21.533;  -15.900;  606.580
1051.303;   23.114;  -11.430;  686.820
1051.850;   22.292;   -8.480;  635.120
1052.397;   19.711;  -15.010;  473.960
1052.945;   21.312;  -13.960;  617.760
1053.492;   22.448;  -13.150;  741.840
1054.039;   22.371;   -9.630;  720.180
1054.586;   20.923;  -13.680;  557.240
1055.133;   21.202;  -14.570;  693.140
1055.680;   21.534;  -13.820;  646.620
1056.227;   20.505;  -11.730;  542.780
1056.774;   21.943;  -12.480;  794.980
1057.321;   20.280;  -13.930;  523.260
1057.868;   20.759;  -11.690;  651.320
1058.415;   21.307;   -9.520;  651.980
1058.961;   20.583;  -13.160;  678.940
1059.508;   20.148;  -12.920;  643.820
1060.055;   19.475;  -11.920;  581.780
1060.601;   20.577;  -11.500;  624.300
1061.148;   20.137;  -14.330;  616.820
1061.694;   19.202;  -16.870;  592.580
1062.241;   19.899;  -10.330;  596.320
1062.787;   20.323;  -10.620;  663.140
1063.334;   20.679;  -10.110;  808.560
1063.880;   19.755;  -13.400;  668.360
1064.426;   20.107;  -10.680;  706.820
1064.972;   18.667;   -9.920;  601.340
1065.518;   17.209;  -10.980;  566.640
1066.065;   18.517;  -14.890;  624.460
1066.611;   17.876;  -12.870;  598.800
1067.157;   18.991;  -12.950;  641.860
1067.703;   18.108;  -13.540;  668.480
1068.249;   18.189;  -13.540;  605.220
1068.794;   18.514;  -12.600;  626.880
1069.340;   17.865;  -10.620;  578.960
1069.886;   17.559;  -12.830;  590.700
1070.432;   16.607;  -14.870;  541.720
1070.977;   17.094;  -11.980;  601.080
1071.523;   17.454;   -8.200;  573.060
1072.068;   16.769;  -12.330;  582.000
1072.614;   16.395;  -16.370;  527.760
1073.160;   16.840;  -11.100;  687.040
1073.705;   16.498;  -10.480;  572.520
1074.250;   16.945;  -14.520;  559.900
1074.796;   16.831;  -11.460;  655.160
1075.341;   17.610;  -11.950;  664.100
1075.886;   17.191;  -11.460;  594.240
1076.431;   15.965;  -13.770;  649.880
1076.976;   16.031;  -12.680;  639.220
1077.521;   15.277;  -13.170;  583.080
1078.067;   15.305;  -10.860;  579.400
1078.612;   15.196;  -13.920;  661.620
1079.156;   14.927;  -13.880;  601.540
1079.701;   15.998;  -13.120;  693.260
1080.246;   16.032;   -9.940;  696.300
1080.791;   15.316;  -14.740;  625.020
1081.336;   15.650;  -13.750;  659.320
1081.880;   15.361;  -13.400;  649.680
1082.425;   14.728;  -12.220;  573.480
1082.970;   15.736;  -11.610;  717.040
1083.514;   14.682;  -13.580;  597.000
1084.059;   14.039;  -12.810;  586.720
1084.603;   14.016;  -12.320;  565.840
1085.147;   14.361;  -13.190;  645.220
1085.692;   14.568;  -12.480;  716.800
1086.236;   12.929;  -13.020;  503.140
1086.780;   15.748;   -9.190;  751.440
1087.325;   13.801;  -12.480;  654.620
1087.869;   13.557;  -12.450;  610.700
1088.413;   13.947;  -12.240;  705.040
1088.957;   12.992;   -9.020;  543.400
1089.501;   14.225;  -10.320;  766.640
1090.045;   13.925;  -12.720;  726.480
1090.589;   11.420;  -13.690;  569.920
1091.133;   12.979;  -10.020;  673.340
1091.676;   12.838;  -12.330;  591.940
1092.220;   12.823;  -14.970;  600.920
1092.764;   13.898;  -12.430;  706.960
1093.307;   12.747;   -9.800;  673.780
1093.851;   11.548;  -14.970;  556.540
1094.395;   12.689;  -15.310;  683.140
1094.938;   12.191;  -10.370;  632.520
1095.482;   11.992;  -11.050;  559.800
1096.025;   12.506;  -11.840;  710.880
1096.568;   12.931;  -12.840;  779.280
1097.112;   10.244;  -14.700;  508.180
1097.655;   12.024;   -8.720;  603.000
1098.198;   10.368;  -13.610;  600.180
1098.741;    9.948;  -13.350;  612.860
1099.285;   11.180;  -11.230;  657.300
1099.828;    9.979;  -11.840;  439.400
1100.371;   10.902;  -10.840;  608.160
1100.914;   10.778;  -14.190;  682.660
1101.457;   11.315;  -11.240;  679.900
1101.999;    9.931;  -11.270;  584.680
1102.542;   11.025;  -11.480;  641.440
1103.085;    9.599;  -11.750;  658.500
1103.628;   11.074;  -11.400;  762.060
1104.170;   10.682;  -10.490;  588.280
1104.713;   10.118;  -10.600;  646.700
1105.256;    8.830;  -14.360;  557.440
1105.798;    9.016;  -13.210;  499.980
1106.341;   11.104;  -10.270;  728.900
1106.883;    9.287;  -12.200;  521.340
1107.425;    9.539;  -13.110;  668.180
1107.968;    9.186;  -12.840;  612.380
1108.510;    9.743;   -6.480;  684.960
1109.052;    8.305;  -13.940;  612.620
1109.594;    8.571;  -13.690;  554.440
1110.136;    9.352;  -11.880;  643.220
1110.679;    8.265;   -9.500;  633.080
1111.221;    9.757;  -14.160;  604.460
1111.763;    8.224;  -13.980;  559.220
1112.304;    8.197;  -13.880;  547.140
1112.846;    9.713;  -12.210;  666.240
1113.388;   11.665;  -11.390;  942.180
1113.930;    7.982;  -14.540;  694.200
1114.472;    7.762;  -12.640;  606.540
1115.013;    7.165;  -11.620;  551.280
1115.555;    7.110;  -13.640;  587.100
1116.097;    6.968;  -15.380;  579.480
1116.638;    7.966;  -12.640;  684.600
1117.180;    8.633;   -9.850;  667.740
1117.721;    7.311;  -13.690;  568.580
1118.262;    7.823;  -12.680;  677.960
1118.804;    7.536;  -12.530;  637.340
1119.345;    7.408;  -11.690;  578.400
1119.886;    7.923;  -13.380;  704.040
1120.427;    6.683;  -14.070;  589.020
1120.969;    7.147;  -13.500;  597.920
1121.510;    5.800;  -11.480;  563.060
1122.051;    6.528;  -12.830;  723.580
1122.592;    5.715;  -14.290;  655.420
1123.133;    5.803;  -12.400;  547.940
1123.673;    7.179;  -10.130;  706.480
1124.214;    6.079;  -12.930;  612.460
1124.755;    6.029;  -14.380;  639.460
1125.296;    6.678;  -14.000;  627.320
1125.836;    7.202;  -10.070;  691.500
1126.377;    5.648;  -12.640;  599.660
1126.918;    6.305;  -12.960;  614.980
1127.458;    5.111;  -13.350;  622.220
1127.999;    6.877;  -10.750;  656.980
1128.539;    5.702;  -12.350;  694.240
1129.079;    5.236;  -14.860;  632.720
1129.620;    5.238;  -13.840;  558.100
1130.160;    4.286;  -12.330;  539.480
1130.700;    5.208;  -14.530;  640.840
1131.240;    5.286;  -12.530;  643.700
1131.781;    5.643;  -14.450;  619.680
1132.321;    5.120;   -9.790;  599.120
1132.861;    3.664;  -14.860;  564.200
1133.401;    3.868;  -14.290;  593.940
1133.941;    5.166;  -11.750;  626.280
1134.481;    4.133;   -9.920;  597.580
1135.020;    3.448;  -12.290;  609.160
1135.560;    4.592;  -11.650;  674.940
1136.100;    3.701;  -16.270;  501.160
1136.640;    3.073;  -10.890;  510.480
1137.179;    3.436;  -14.180;  537.960
1137.719;    3.680;  -16.250;  605.400
1138.258;    3.888;  -14.230;  587.360
1138.798;    4.220;   -9.090;  663.780
1139.337;    3.352;  -15.130;  482.840
1139.877;    3.424;  -13.680;  642.360
1140.416;    5.814;  -11.320;  878.060
1140.955;    2.974;  -10.860;  535.380
1141.494;    2.968;  -12.920;  669.280
1142.034;    2.619;  -13.930;  583.520
1142.573;    4.543;  -11.440;  646.280
1143.112;    2.807;  -12.000;  553.480
1143.651;    2.734;  -13.670;  536.480
1144.190;    3.465;  -12.730;  691.640
1144.729;    2.897;  -14.560;  607.420
1145.267;    2.874;  -11.830;  584.900
1145.806;    3.573;  -12.230;  637.040
1146.345;    1.786;  -14.130;  635.020
1146.884;    2.945;  -11.590;  622.500
1147.422;    1.827;  -12.550;  533.060
1147.961;    3.605;  -11.180;  708.460
1148.500;    2.674;  -11.510;  669.720
1149.038;    3.307;  -11.640;  632.500
1149.577;    2.572;  -10.130;  698.640
1150.115;    0.602;  -13.970;  452.280
1150.653;    2.099;  -14.520;  607.340
1151.192;    2.251;  -12.810;  552.920
1151.730;    2.025;   -9.100;  652.560
1152.268;    1.293;  -12.220;  589.520
1152.806;    1.413;  -14.140;  571.180
1153.344;    0.309;  -12.350;  577.640
1153.882;    1.902;   -8.980;  600.060
1154.421;   -0.036;  -15.190;  470.620
1154.958;    0.732;  -15.210;  595.240
1155.496;    2.602;  -12.850;  645.280
1156.034;    2.207;   -9.940;  721.880
1156.572;    2.011;  -13.570;  667.060
1157.110;   -0.267;  -14.590;  473.940
1157.647;    1.605;  -13.030;  676.960
1158.185;    0.870;  -12.140;  564.320
1158.723;    0.066;  -14.390;  509.200
1159.260;    0.593;  -14.090;  701.700
1159.798;    1.330;  -11.920;  658.160
1160.335;    0.528;  -11.110;  631.820

