
Integration time [ms]:   3.276
Averaging Nr. [scans]: 1000
Smoothing Nr. [pixels]: 0
Data measured with spectrometer [name]: 7414430SP
Wave   ;Sample   ;Dark     ;Reference
[nm]   ;[counts] ;[counts] ;[counts] 

288.544;  160.720;    7.793;  793.890
289.143;  163.319;    7.462;  681.602
289.742;  164.142;    8.602;  828.814
290.341;  150.590;    1.321;  789.841
290.940;  140.658;   -0.709;  730.702
291.538;  143.178;    0.881;  881.108
292.137;  143.744;    0.122;  792.581
292.736;  145.345;   -1.929;  975.101
293.335;  140.232;   -8.229;  735.086
293.934;  142.131;   -5.279;  781.677
294.532;  141.711;   -1.369; 1031.958
295.131;  130.390;   -7.641;  834.394
295.730;  129.426;   -8.420;  809.588
296.328;  125.802;   -5.611;  783.442
296.927;  125.105;   -5.781;  779.652
297.525;  127.318;   -6.361;  781.236
298.124;  118.507;  -11.382;  654.009
298.722;  123.212;   -7.641;  761.933
299.321;  120.170;   -6.811;  708.597
299.919;  117.005;   -6.991;  751.918
300.518;  112.197;  -10.362;  689.338
301.116;  115.569;   -9.581;  691.381
301.715;  117.102;   -4.891;  730.222
302.313;  115.999;   -8.801;  704.943
302.911;  109.446;   -8.522;  733.830
303.509;  113.742;   -6.171;  925.627
304.108;  112.380;   -7.311;  760.383
304.706;  113.133;   -8.321;  801.664
305.304;  106.485;  -10.222;  796.707
305.902;  109.698;   -6.021;  784.484
306.500;  106.530;   -4.971;  728.200
307.098;  106.753;   -7.061;  746.560
307.696;  103.495;   -8.801;  780.432
308.294;  103.585;   -6.411;  731.359
308.892;  105.512;   -2.901;  759.769
309.490;  102.063;   -5.041;  712.161
310.088;  100.930;   -5.002;  788.444
310.686;  104.010;   -2.041;  821.749
311.284;  100.094;   -2.351;  766.040
311.882;   98.835;   -4.422;  731.225
312.480;   94.464;   -4.192;  697.167
313.078;   95.834;   -1.172;  808.331
313.675;   96.951;   -2.601;  691.600
314.273;   92.701;   -1.312;  797.837
314.871;   91.326;   -3.942;  589.829
315.468;   87.980;   -2.802;  652.090
316.066;   91.580;   -0.701;  694.427
316.664;   84.905;   -4.362;  656.351
317.261;   89.085;   -2.872;  910.128
317.859;   84.316;   -2.022;  768.735
318.456;   84.726;   -0.531;  830.096
319.054;   81.462;   -3.912;  787.828
319.651;   78.818;   -4.752;  759.928
320.249;   76.743;   -2.602;  810.188
320.846;   75.346;   -0.821;  714.286
321.443;   73.720;   -4.642;  832.135
322.041;   70.083;   -5.002;  812.315
322.638;   68.004;   -3.982;  701.456
323.235;   69.204;   -3.411;  665.683
323.833;   66.153;   -7.361;  740.354
324.430;   60.567;   -8.611;  615.900
325.027;   61.726;   -4.061;  876.855
325.624;   61.875;   -4.031;  644.532
326.221;   58.941;   -7.481;  689.717
326.818;   58.647;   -5.281;  818.332
327.415;   60.701;   -7.460;  748.828
328.012;   60.605;   -5.510;  690.585
328.609;   60.013;   -7.880;  731.389
329.206;   58.147;   -8.331;  778.621
329.803;   57.695;   -5.121;  737.841
330.400;   60.199;   -4.510;  704.260
330.997;   61.537;   -6.441;  817.147
331.594;   59.173;   -8.831;  788.185
332.191;   64.318;   -7.621;  728.722
332.787;   68.420;   -4.591;  844.463
333.384;   68.574;   -7.412;  763.093
333.981;   65.859;   -8.293;  815.687
334.578;   67.865;   -7.052;  708.378
335.174;   70.966;   -3.102;  731.469
335.771;   71.742;   -5.943;  836.456
336.367;   67.795;   -7.393;  710.631
336.964;   71.686;   -4.063;  793.266
337.561;   71.590;   -3.813;  731.112
338.157;   67.139;   -4.654;  911.916
338.754;   63.380;   -7.934;  796.589
339.350;   63.047;   -4.414;  722.493
339.946;   64.968;   -4.664;  773.135
340.543;   56.580;   -6.375;  846.136
341.139;   50.252;   -9.815;  720.836
341.735;   48.128;   -4.526;  772.593
342.332;   48.275;   -4.895;  691.472
342.928;   47.397;   -4.295;  795.394
343.524;   39.825;   -5.476;  761.684
344.120;   37.843;   -5.856;  738.562
344.716;   40.016;   -2.155;  723.717
345.313;   37.652;   -6.275;  795.342
345.909;   32.256;   -8.815;  627.336
346.505;   34.445;   -5.305;  740.247
347.101;   34.198;   -2.674;  827.864
347.697;   35.138;   -4.344;  785.398
348.293;   29.251;   -9.975;  627.244
348.889;   29.548;   -5.774;  745.914
349.485;   29.466;   -5.004;  688.205
350.081;   29.779;   -4.704;  772.592
350.676;   24.907;   -6.635;  691.606
351.272;   29.155;   -4.504;  809.530
351.868;   28.130;   -3.914;  780.497
352.464;   26.448;   -9.044;  723.932
353.059;   21.980;   -8.314;  646.017
353.655;   25.624;   -7.024;  777.063
354.251;   25.959;   -5.343;  759.845
354.846;   21.205;   -8.604;  740.646
355.442;   19.102;   -6.945;  753.071
356.038;   20.531;   -7.564;  751.708
356.633;   21.029;   -5.814;  728.594
357.229;   19.367;   -7.364;  724.757
357.824;   17.355;   -8.024;  703.600
358.420;   16.282;   -9.384;  679.726
359.015;   16.920;   -5.104;  695.357
359.610;   18.169;   -6.854;  763.920
360.206;   11.520;  -10.185;  603.240
360.801;   14.034;   -7.054;  646.503
361.396;   16.973;   -5.034;  725.975
361.992;   12.154;   -8.284;  668.220
362.587;    9.072;   -8.625;  670.160
363.182;   10.862;   -7.674;  689.631
363.777;   11.449;   -5.164;  738.242
364.372;   12.092;   -8.604;  737.314
364.967;    7.973;   -9.055;  680.744
365.563;   11.987;   -6.114;  815.567
366.158;    9.578;   -5.814;  685.161
366.753;    9.521;   -7.854;  649.263
367.348;    7.515;   -7.804;  746.056
367.942;    8.199;   -7.954;  697.298
368.537;    6.596;   -4.984;  754.245
369.132;    7.015;   -8.564;  703.428
369.727;    2.836;   -8.855;  638.079
370.322;    4.039;   -6.245;  580.186
370.917;    4.566;   -6.425;  710.646
371.511;    7.024;   -6.294;  861.834
372.106;    3.633;   -7.685;  776.964
372.701;    0.488;   -7.335;  585.988
373.296;    5.139;   -4.564;  863.135
373.890;    0.924;  -10.235;  647.840
374.485;   -1.820;   -7.885;  691.199
375.079;    2.758;   -7.324;  738.685
375.674;    3.754;   -3.494;  812.970
376.268;   -0.662;   -8.525;  691.759
376.863;   -6.332;  -10.086;  580.327
377.457;   -0.398;   -7.025;  662.490
378.052;   -2.264;   -3.585;  764.884
378.646;   -2.077;   -7.595;  741.167
379.240;   -2.626;   -8.335;  721.176
379.835;   -2.604;   -5.785;  636.978
380.429;   -3.838;   -4.335;  562.557
381.023;   -3.283;   -6.805;  779.205
381.617;   -6.735;   -9.195;  680.106
382.212;   -4.103;   -6.905;  685.303
382.806;   -2.615;   -3.745;  760.690
383.400;   -6.121;   -7.745;  672.281
383.994;   -8.206;   -9.765;  664.870
384.588;   -3.533;   -6.564;  697.701
385.182;   -2.634;   -5.344;  726.624
385.776;   -4.040;   -8.514;  706.875
386.370;   -7.966;   -9.555;  681.968
386.964;   -6.449;   -8.715;  684.155
387.558;   -5.105;   -6.174;  598.360
388.152;   -7.056;   -8.725;  681.959
388.745;   -6.016;   -7.965;  814.707
389.339;   -4.209;   -5.924;  747.642
389.933;   -3.015;   -5.524;  695.370
390.527;   -4.515;   -7.114;  859.029
391.120;  -10.725;  -10.725;  595.318
391.714;   -7.596;   -8.035;  711.633
392.308;   -5.039;   -3.574;  780.253
392.901;   -8.698;   -7.245;  642.460
393.495;   -9.603;   -9.285;  595.414
394.089;   -8.037;   -5.895;  760.452
394.682;   -8.807;   -4.295;  697.188
395.275;   -8.839;   -9.875;  719.927
395.869;  -10.370;   -8.485;  667.314
396.462;   -8.614;   -7.455;  616.609
397.056;   -5.281;   -5.424;  776.621
397.649;   -9.446;   -6.605;  731.575
398.242;   -6.957;   -8.224;  712.645
398.836;   -6.355;   -7.474;  766.408
399.429;   -6.709;   -7.094;  631.041
400.022;  -10.439;   -9.475;  665.902
400.615;   -7.985;   -7.145;  805.609
401.208;   -6.797;   -7.174;  691.451
401.802;   -8.760;   -5.515;  699.329
402.395;   -9.498;   -9.875;  683.502
402.988;  -11.102;   -8.845;  696.627
403.581;   -8.062;   -8.874;  646.878
404.174;   -4.962;   -5.324;  686.568
404.767;   -8.239;   -9.575;  638.583
405.360;  -10.577;  -10.965;  621.445
405.953;   -5.001;   -8.764;  759.034
406.545;   -5.833;   -7.514;  725.342
407.138;   -8.651;  -10.025;  618.350
407.731;   -7.900;  -10.034;  613.303
408.324;   -4.008;   -9.374;  660.554
408.917;   -4.583;   -6.534;  681.864
409.509;   -6.166;   -8.004;  740.396
410.102;   -7.849;   -9.875;  643.948
410.695;   -2.425;   -8.604;  665.758
411.287;   -3.684;   -6.794;  599.821
411.880;   -4.041;   -9.334;  585.421
412.472;   -7.538;  -10.254;  613.092
413.065;   -4.417;   -6.714;  629.408
413.657;   -2.095;   -7.234;  576.678
414.250;   -2.097;  -10.544;  646.681
414.842;   -4.593;   -9.744;  676.353
415.434;   -1.983;   -6.994;  570.463
416.027;    1.988;   -5.893;  652.196
416.619;    0.374;   -7.264;  713.400
417.211;   -0.837;  -10.374;  599.352
417.804;    2.912;   -7.993;  628.499
418.396;   -0.857;   -7.234;  607.643
418.988;    2.031;   -9.443;  659.238
419.580;   -1.398;  -10.724;  568.276
420.172;    0.588;  -10.323;  536.196
420.764;    4.663;   -8.793;  672.482
421.356;    3.758;  -11.143;  636.898
421.948;    2.228;   -8.293;  677.661
422.540;    7.332;   -7.893;  680.027
423.132;    6.905;   -7.082;  600.641
423.724;    4.227;   -8.653;  561.267
424.316;    6.012;  -10.213;  621.345
424.908;    9.642;   -9.762;  591.517
425.500;   10.339;   -5.572;  647.978
426.092;   10.251;   -8.422;  648.268
426.683;    9.419;   -9.283;  684.836
427.275;   11.855;   -7.852;  641.471
427.867;   13.183;   -5.272;  668.948
428.458;   14.695;   -7.682;  732.344
429.050;   13.276;  -10.612;  680.749
429.642;   14.676;   -9.882;  743.124
430.233;   15.590;   -6.962;  569.356
430.825;   16.486;   -6.842;  724.809
431.416;   14.226;   -9.672;  698.241
432.008;   17.876;   -6.552;  651.723
432.599;   18.465;   -6.891;  656.073
433.190;   15.926;  -10.912;  637.670
433.782;   14.927;  -11.172;  590.395
434.373;   21.763;   -6.061;  884.765
434.964;   21.657;   -8.251;  602.920
435.556;   18.980;   -9.722;  634.537
436.147;   21.639;   -9.082;  758.490
436.738;   21.808;   -8.041;  701.099
437.329;   26.995;   -7.341;  721.723
437.920;   20.436;   -8.162;  666.688
438.511;   20.056;  -11.802;  564.526
439.103;   26.516;  -10.191;  623.998
439.694;   28.031;   -7.601;  681.583
440.285;   30.079;   -8.541;  764.432
440.876;   27.207;   -9.751;  845.738
441.466;   26.280;   -9.401;  575.162
442.057;   32.207;   -7.760;  665.814
442.648;   31.016;   -9.971;  746.255
443.239;   29.028;  -11.001;  620.477
443.830;   34.267;   -7.990;  704.958
444.421;   35.673;   -7.910;  655.474
445.011;   33.434;   -8.131;  693.619
445.602;   32.460;   -7.111;  743.126
446.193;   34.025;  -10.920;  488.117
446.783;   38.550;   -6.500;  640.397
447.374;   34.147;   -8.671;  692.759
447.964;   34.320;  -10.781;  713.770
448.555;   42.959;   -9.650;  822.742
449.145;   40.119;   -8.660;  662.853
449.736;   40.692;   -8.990;  803.179
450.326;   40.833;   -9.500;  713.626
450.917;   45.539;   -8.680;  675.324
451.507;   45.184;   -7.520;  600.661
452.097;   46.629;   -8.590;  746.267
452.688;   46.978;  -11.340;  742.160
453.278;   46.882;  -10.100;  566.840
453.868;   51.024;   -6.019;  793.550
454.458;   48.889;   -9.440;  651.141
455.048;   49.959;  -10.560;  711.783
455.639;   51.088;  -11.799;  567.096
456.229;   54.086;   -6.899;  710.694
456.819;   57.476;   -7.389;  751.158
457.409;   57.324;  -11.119;  773.993
457.999;   59.452;   -9.289;  737.505
458.589;   59.104;   -6.139;  686.606
459.179;   59.561;   -8.729;  717.658
459.769;   57.843;   -9.789;  627.099
460.358;   62.492;  -10.259;  797.262
460.948;   62.314;   -7.299;  689.503
461.538;   64.582;  -10.289;  660.677
462.128;   62.952;  -11.269;  664.934
462.717;   69.359;   -9.368;  710.326
463.307;   72.687;   -7.908;  705.846
463.897;   68.413;   -9.599;  656.942
464.486;   67.032;   -9.769;  837.128
465.076;   71.860;   -8.048;  733.776
465.666;   75.024;   -9.358;  652.900
466.255;   73.779;   -7.919;  785.651
466.845;   72.662;  -11.689;  666.749
467.434;   75.983;   -7.818;  725.873
468.023;   76.129;   -7.678;  658.357
468.613;   74.497;  -10.939;  713.946
469.202;   78.901;  -10.118;  646.507
469.791;   82.951;   -9.108;  737.811
470.381;   85.290;   -6.058;  742.813
470.970;   84.921;  -10.428;  711.099
471.559;   84.289;  -10.268;  733.291
472.148;   87.812;   -8.448;  675.737
472.738;   90.365;   -6.917;  765.466
473.327;   90.230;  -11.978;  637.529
473.916;   90.062;  -11.888;  737.446
474.505;   94.280;   -9.437;  751.703
475.094;   97.314;   -6.747;  806.570
475.683;   96.391;   -9.367;  797.699
476.272;   96.837;  -12.637;  730.632
476.861;  100.366;  -10.027;  706.754
477.449;  107.481;   -8.716;  728.487
478.038;  102.549;   -9.577;  692.513
478.627;  102.565;   -9.718;  714.852
479.216;  109.736;   -8.947;  769.441
479.805;  112.388;   -6.256;  783.375
480.393;  112.115;   -7.937; 1008.945
480.982;  112.207;   -7.717;  874.501
481.571;  117.024;   -9.266;  858.333
482.159;  119.703;   -7.636;  705.386
482.748;  118.994;   -9.667;  821.385
483.336;  123.490;  -10.376;  858.209
483.925;  124.889;   -7.147;  774.373
484.513;  131.316;   -7.996;  758.962
485.102;  129.114;  -10.027;  810.965
485.690;  137.180;  -10.446; 1011.050
486.278;  139.534;   -8.446;  979.329
486.867;  139.218;   -6.356;  809.662
487.455;  142.719;   -9.136;  898.229
488.043;  144.133;  -10.646;  748.361
488.631;  153.828;   -7.456; 1005.079
489.220;  158.133;   -6.636;  908.626
489.808;  159.059;  -11.036;  741.415
490.396;  166.841;  -10.246;  914.645
490.984;  174.633;   -8.556;  830.161
491.572;  187.635;   -5.886;  940.315
492.160;  195.280;   -9.486;  919.081
492.748;  207.283;  -10.976;  884.341
493.336;  232.794;   -8.776; 1019.693
493.924;  262.165;   -5.465;  958.077
494.512;  298.623;   -9.986; 1066.638
495.100;  345.904;  -10.636; 1103.280
495.687;  406.554;  -10.885; 1206.373
496.275;  479.226;   -8.126; 1150.796
496.863;  576.663;  -10.586; 1281.171
497.451;  695.556;  -11.926; 1386.805
498.038;  821.505;  -10.885; 1556.729
498.626;  966.118;   -6.315; 1741.407
499.214; 1135.387;   -7.326; 2016.609
499.801; 1338.779;  -11.906; 2220.633
500.389; 1551.102;  -10.466; 2312.494
500.976; 1825.566;   -5.236; 2744.849
501.564; 2251.343;   -8.936; 3148.565
502.151; 2881.367;  -13.176; 3515.999
502.738; 3524.433;  -10.646; 3971.274
503.326; 4023.411;   -9.525; 4403.796
503.913; 4331.344;  -10.856; 5161.749
504.500; 4818.851;  -11.586; 5986.420
505.088; 5488.340;  -10.336; 6381.201
505.675; 5756.968;   -6.355; 6925.547
506.262; 6244.375;   -9.046; 7619.060
506.849; 6777.978;  -10.416; 8733.969
507.436; 7059.669;  -10.305; 9790.121
508.023; 7862.459;   -5.496; 9985.472
508.610; 8727.396;   -7.856;10434.618
509.197;10270.965;  -10.097;11198.435
509.784;11828.250;  -10.886;12391.194
510.371;12938.995;   -9.315;13603.713
510.958;13746.732;   -9.936;14426.586
511.545;13784.895;   -9.326;15243.775
512.132;14466.161;  -10.075;15945.876
512.719;16072.303;   -7.796;16340.369
513.305;18725.434;  -10.606;18011.766
513.892;19639.725;  -11.486;19754.971
514.479;20664.682;   -9.126;20967.805
515.066;21651.131;   -6.026;22299.793
515.652;21400.012;   -8.466;22908.660
516.239;22243.322;  -10.886;23798.875
516.825;24325.361;  -11.496;25567.275
517.412;25925.758;   -5.796;28154.959
517.998;26120.684;  -10.506;28344.111
518.585;25681.225;  -10.076;27134.219
519.171;25927.209;   -8.315;27268.576
519.758;27025.654;   -8.596;28964.129
520.344;28393.059;   -8.466;30664.494
520.930;30721.219;  -11.006;32550.605
521.516;32002.928;  -10.495;35422.895
522.103;33022.980;   -5.526;38280.004
522.689;34598.516;   -8.746;37835.117
523.275;35397.430;  -11.376;37288.613
523.861;36375.605;  -11.156;37281.395
524.447;37078.836;   -8.135;37846.949
525.033;37661.734;   -7.896;38321.949
525.619;40387.406;  -12.476;38579.285
526.205;41180.238;   -9.516;40622.875
526.791;40510.098;   -6.926;42258.836
527.377;41302.156;   -8.346;42966.902
527.963;42732.441;   -8.717;42018.949
528.549;42705.809;  -11.016;42476.828
529.135;42101.879;   -8.536;41854.852
529.721;41009.703;   -9.666;41237.711
530.306;40558.520;  -10.066;41259.445
530.892;39115.098;  -11.356;41506.047
531.478;40282.410;   -6.596;43559.613
532.063;42841.160;   -8.836;47695.563
532.649;44818.852;  -10.047;50808.324
533.235;46247.980;   -9.746;51787.500
533.820;48189.605;   -6.566;52145.035
534.406;50080.156;  -10.817;51133.488
534.991;51933.273;   -9.416;49996.805
535.576;47032.523;   -9.036;48882.852
536.162;45797.352;   -6.156;46942.285
536.747;47016.910;  -11.607;45711.746
537.333;48818.504;  -11.787;48510.180
537.918;49428.668;  -12.437;50439.891
538.503;48315.941;   -7.196;50863.711
539.088;49621.914;  -10.556;50906.922
539.673;50815.156;   -8.767;52621.965
540.259;48639.500;  -10.026;52368.094
540.844;47299.242;   -7.416;50879.109
541.429;48813.859;   -9.467;52077.777
542.014;50739.664;   -9.527;52716.695
542.599;52300.672;   -9.946;52363.281
543.184;50564.508;   -7.927;53187.137
543.769;49015.727;   -9.297;54697.605
544.354;46829.367;  -10.127;53913.914
544.938;45547.211;   -9.267;49680.164
545.523;46812.094;   -6.506;47386.277
546.108;49132.145;   -9.787;49151.949
546.693;49644.473;  -11.587;51384.637
547.278;48718.156;  -10.986;51853.254
547.862;46320.422;   -8.206;51173.750
548.447;46175.195;  -10.067;51691.395
549.031;50244.215;   -9.637;52456.703
549.616;51405.875;   -9.926;52714.516
550.201;49622.820;   -6.347;52414.598
550.785;47796.531;   -7.917;52355.059
551.370;42536.398;  -10.867;54589.453
551.954;45376.594;   -9.047;58267.348
552.538;49337.621;   -7.827;59062.176
553.123;48920.539;  -10.287;58115.285
553.707;47685.859;  -12.178;56556.285
554.291;48492.719;   -8.717;56201.668
554.876;48875.949;   -7.457;55335.762
555.460;48606.191;  -10.387;54155.703
556.044;48078.988;   -9.618;53721.484
556.628;47132.379;  -11.567;53731.016
557.212;49157.883;   -8.097;54312.531
557.796;48462.742;  -11.077;53797.773
558.380;46342.367;  -11.108;56145.984
558.964;43462.555;   -9.057;57277.930
559.548;42031.410;   -6.977;56459.641
560.132;42759.500;  -11.457;54434.543
560.716;43265.648;  -11.378;54800.617
561.300;44082.207;   -9.577;57606.945
561.884;45424.313;   -7.127;58972.445
562.467;48043.699;   -7.118;57327.570
563.051;46941.934;  -13.358;54962.434
563.635;46719.133;  -10.178;52594.473
564.219;47263.336;   -7.837;50610.410
564.802;46458.000;  -11.398;49551.180
565.386;45478.555;  -12.788;48370.953
565.969;44070.414;   -9.077;48178.871
566.553;44780.961;   -6.207;49957.305
567.136;45323.926;   -8.568;50369.594
567.720;45420.000;  -11.868;49492.004
568.303;45173.008;   -8.268;50616.352
568.887;43436.574;   -8.698;50727.148
569.470;43139.332;   -6.808;51698.379
570.053;40763.074;  -13.188;52122.078
570.637;38693.746;  -12.037;52536.438
571.220;38857.086;   -8.577;51186.098
571.803;40139.785;   -8.498;51032.762
572.386;39545.250;  -10.498;49609.887
572.969;39488.539;   -9.388;48285.926
573.552;39203.523;   -8.338;47624.285
574.135;39677.648;   -8.518;45498.641
574.718;39960.445;  -13.628;41970.434
575.301;37027.105;  -10.893;41447.137
575.884;34093.770;   -8.158;40923.836
576.467;37057.172;  -10.328;45267.723
577.050;37604.957;  -13.058;48175.543
577.633;38308.043;   -9.458;47729.328
578.216;37511.504;   -8.928;47579.793
578.799;35653.535;   -9.358;47820.996
579.381;34967.598;  -11.388;48115.551
579.964;34402.824;  -11.718;47333.766
580.547;35934.934;   -8.588;46668.969
581.129;36902.891;   -8.859;44466.141
581.712;35205.527;  -10.729;44164.922
582.294;35441.395;  -11.118;46477.855
582.877;35989.465;   -5.218;48244.254
583.459;36411.168;   -8.679;47437.895
584.042;35786.375;  -10.709;46943.219
584.624;35655.160;  -11.669;46792.227
585.206;39124.488;   -8.218;46557.250
585.789;38047.316;  -10.569;45793.773
586.371;36538.918;  -11.859;43836.391
586.953;33928.438;  -10.719;42972.492
587.536;32135.551;   -7.198;42487.211
588.118;34186.723;   -8.720;42086.414
588.700;35625.668;  -10.439;43389.930
589.282;34837.473;   -9.198;43646.039
589.864;34317.398;   -9.199;43438.109
590.446;33571.051;  -11.319;43151.926
591.028;34581.336;  -11.159;42781.867
591.610;34783.809;  -11.779;42839.098
592.192;31459.613;   -7.668;42820.402
592.774;30570.730;  -11.949;40724.277
593.356;30195.975;  -12.129;39874.789
593.937;30777.975;  -10.669;39980.648
594.519;31204.760;   -6.509;42069.633
595.101;33876.992;  -10.849;42976.031
595.683;36143.117;  -11.679;44084.441
596.264;34727.750;   -9.049;43478.797
596.846;36113.355;   -8.849;43803.672
597.427;38021.578;   -9.570;42986.934
598.009;35566.816;  -12.620;42832.219
598.591;32271.568;  -10.039;42580.086
599.172;31371.770;  -10.369;43061.805
599.753;32559.104;   -9.140;41691.469
600.335;32952.863;  -11.430;40692.520
600.916;31762.957;   -9.939;39982.422
601.498;33743.055;   -8.479;40318.617
602.079;33733.328;  -10.920;40670.609
602.660;33070.238;  -11.480;41450.898
603.241;33278.469;  -11.699;41137.738
603.823;33613.980;   -9.579;38868.797
604.404;32670.947;  -10.620;38182.785
604.985;31565.354;  -10.450;38078.047
605.566;31224.975;   -9.129;38056.633
606.147;32601.430;   -7.510;37020.418
606.728;32425.670;  -10.660;37883.359
607.309;31685.547;  -11.740;38748.273
607.890;30676.479;   -9.759;38850.230
608.471;29243.061;   -8.250;37457.918
609.051;30299.346;   -9.240;36066.457
609.632;30518.904;  -12.120;35991.074
610.213;29390.828;   -9.110;37402.641
610.794;30094.783;   -8.030;38383.363
611.374;30734.145;   -8.110;40562.387
611.955;31496.055;  -13.560;38533.727
612.536;31139.873;  -11.400;36951.789
613.116;32067.258;   -8.070;37197.891
613.697;31864.684;  -10.830;38411.125
614.277;30068.764;  -11.641;38673.938
614.858;29013.424;  -13.310;37075.863
615.438;29489.279;   -7.460;35092.906
616.019;29493.611;   -7.601;33666.301
616.599;29519.217;  -12.020;34189.023
617.179;29656.287;  -11.780;36952.047
617.760;31800.211;   -8.570;39582.574
618.340;33816.844;  -11.471;38943.977
618.920;32366.934;  -11.170;37594.156
619.500;31057.742;  -11.071;37866.938
620.080;31540.664;   -7.750;37869.043
620.660;32636.588;  -12.711;36868.617
621.241;30281.813;  -10.211;36352.309
621.821;28919.234;  -10.961;35459.520
622.401;30193.029;   -7.720;35207.414
622.980;31406.846;   -8.981;35980.422
623.560;32448.531;   -9.331;37351.328
624.140;29060.787;   -9.850;34388.582
624.720;25002.994;   -7.451;32368.764
625.300;23290.180;   -9.070;32638.629
625.880;26131.525;  -12.601;34599.035
626.459;30268.980;  -11.751;36831.738
627.039;31541.594;   -9.281;38299.098
627.619;31935.494;   -8.801;38289.574
628.198;32483.662;  -12.071;37220.695
628.778;33451.871;   -9.461;37632.563
629.357;34496.547;   -8.491;38003.012
629.937;33549.969;   -9.721;38402.039
630.516;33273.758;   -9.951;37868.801
631.096;32239.738;  -11.731;35760.410
631.675;32211.809;   -8.572;35225.219
632.254;33029.141;  -11.282;35130.289
632.834;33330.891;  -13.322;35794.570
633.413;34296.309;  -10.301;35788.922
633.992;34643.500;   -8.582;34532.863
634.571;32846.742;   -8.352;33590.113
635.151;32537.135;  -11.912;34943.863
635.730;31731.424;  -10.511;35352.523
636.309;32050.779;   -7.731;35366.605
636.888;32013.760;   -9.952;36165.637
637.467;31449.629;  -11.672;37515.902
638.046;32798.637;   -8.901;39288.695
638.625;31690.373;   -7.912;38279.699
639.204;32325.367;  -10.022;37741.598
639.782;32093.477;  -12.252;38364.551
640.361;29514.168;  -10.041;36740.621
640.940;27560.219;  -11.161;34950.082
641.519;27854.135;   -9.701;34137.398
642.097;30094.125;  -11.271;35654.258
642.676;30078.072;   -8.651;35637.957
643.255;32790.961;   -8.711;36567.074
643.833;35162.207;   -9.581;37809.434
644.412;33910.852;  -13.711;37337.293
644.990;31610.070;  -11.811;37018.531
645.569;31294.051;   -9.411;36518.469
646.147;31970.076;  -10.291;36186.430
646.726;31269.334;  -12.401;36267.688
647.304;29912.617;  -10.411;36647.625
647.882;31327.787;   -9.651;39286.742
648.461;33762.469;   -9.631;39157.703
649.039;33885.984;  -11.881;35412.883
649.617;33661.066;   -9.661;34744.918
650.195;34118.016;   -9.301;35403.098
650.773;33026.625;  -10.511;35053.797
651.352;32497.770;  -11.521;33756.816
651.930;30615.797;  -12.211;31868.773
652.508;25249.424;   -9.171;33121.551
653.086;24168.619;   -9.371;33564.793
653.663;29032.939;  -13.161;34054.668
654.241;30660.086;  -13.031;35693.309
654.819;32865.023;   -9.371;36422.906
655.397;32248.295;  -10.511;38213.484
655.975;31797.205;  -10.371;39507.625
656.553;32937.406;  -10.051;39498.223
657.130;32072.250;  -10.061;40395.480
657.708;30126.590;   -9.561;39242.020
658.286;29689.973;  -11.511;38920.020
658.863;28571.348;  -10.261;40202.898
659.441;30036.813;   -7.531;39677.938
660.018;31696.322;   -9.501;40413.355
660.596;31509.520;  -13.301;39931.414
661.173;29586.949;  -11.211;39604.531
661.750;29458.107;   -9.951;39700.070
662.328;31449.584;   -9.390;39292.809
662.905;30520.133;  -11.330;38235.648
663.482;26270.891;   -9.050;36212.305
664.060;23833.678;   -8.240;35944.945
664.637;27987.510;  -10.050;35170.785
665.214;31277.297;  -11.760;34197.523
665.791;32308.277;  -10.530;34549.520
666.368;32453.402;   -9.690;35118.578
666.945;32796.824;   -9.320;36019.418
667.522;31023.422;  -11.860;36048.438
668.099;30560.283;  -10.770;36243.914
668.676;32890.586;   -6.260;35958.875
669.253;34211.098;   -7.000;37384.730
669.830;34776.289;  -10.190;36779.629
670.407;34095.043;   -9.550;35231.289
670.984;32630.984;   -9.260;35544.270
671.560;29735.770;   -9.280;35466.867
672.137;26421.260;  -11.810;34280.863
672.714;25602.438;  -11.490;34632.863
673.290;30143.117;   -7.740;35135.422
673.867;33861.645;  -10.660;36114.480
674.443;32865.672;  -12.230;36152.859
675.020;30821.277;  -10.450;35327.238
675.596;29463.158;   -9.260;35795.176
676.173;30027.740;  -10.780;35430.355
676.749;30886.031;  -13.690;33549.516
677.326;29667.400;  -11.980;32210.012
677.902;27899.963;   -8.630;32068.871
678.478;27878.443;  -10.730;32583.891
679.054;29328.469;  -10.520;32088.928
679.631;30434.967;  -11.920;30978.848
680.207;30589.000;   -7.490;33160.887
680.783;30664.570;   -9.860;35570.363
681.359;32830.137;  -13.380;36125.184
681.935;32774.668;  -12.480;35240.922
682.511;30024.646;   -7.900;34429.961
683.087;28773.836;   -7.710;34463.680
683.663;29609.475;  -11.480;34648.898
684.239;30442.648;  -14.090;34546.457
684.815;30009.797;   -7.560;35586.375
685.390;28362.627;   -9.910;35821.895
685.966;28652.963;  -11.159;35085.871
686.542;27712.822;  -11.169;34198.230
687.118;28110.424;   -5.959;32847.707
687.693;31435.770;  -10.329;32794.027
688.269;32003.412;  -12.059;33072.367
688.844;32020.676;  -10.909;33141.664
689.420;33996.578;   -8.019;33965.742
689.995;32334.811;   -8.399;34655.523
690.571;30127.068;  -10.949;33576.742
691.146;29495.361;   -9.619;32657.219
691.722;30920.994;   -8.999;32526.979
692.297;31011.219;  -11.589;33014.617
692.872;29829.211;  -11.739;34012.254
693.448;29877.832;  -11.059;34237.434
694.023;29707.373;  -10.139;34142.672
694.598;27094.033;   -9.029;34132.031
695.173;27094.654;  -13.319;34205.250
695.748;29276.299;  -10.169;32882.488
696.323;28644.457;   -8.339;32864.906
696.898;27350.914;   -8.169;33170.004
697.473;27878.217;  -12.309;32432.984
698.048;28028.350;  -10.989;31649.303
698.623;27748.311;   -9.329;30778.141
699.198;27934.906;   -9.849;31140.119
699.773;28677.156;  -12.329;31764.299
700.348;31115.416;  -10.389;31780.816
700.922;30931.449;   -9.269;32046.375
701.497;28334.992;   -9.329;32603.574
702.072;29053.164;  -10.789;34799.871
702.646;28532.146;  -10.839;35793.172
703.221;29622.643;   -9.099;35201.590
703.795;30518.266;  -10.939;34764.527
704.370;30921.260;  -12.859;34307.367
704.944;31116.477;  -11.559;33509.887
705.519;30447.871;   -7.939;31388.584
706.093;32187.996;  -10.499;31340.104
706.668;31283.139;  -11.289;32630.281
707.242;30527.873;  -11.509;32728.779
707.816;29036.926;   -9.639;32947.238
708.390;27122.135;  -11.429;33277.855
708.965;26642.365;  -11.869;33834.336
709.539;27833.705;  -11.689;33709.273
710.113;28273.867;  -10.478;33044.313
710.687;28404.592;  -10.228;31953.992
711.261;28116.820;  -13.698;30505.949
711.835;28167.607;  -13.378;30262.369
712.409;28352.836;   -9.698;31254.447
712.983;27434.365;  -11.898;32754.986
713.557;27124.863;  -15.138;34018.824
714.131;25315.664;  -14.098;34579.625
714.704;23884.408;   -9.958;33890.262
715.278;24490.699;  -10.028;33531.102
715.852;24846.133;  -11.148;33601.660
716.425;25842.621;   -9.068;33515.117
716.999;25361.195;  -10.038;33185.555
717.573;24571.613;   -9.798;33905.996
718.146;25555.625;  -12.378;35199.293
718.720;26809.641;  -11.918;35060.551
719.293;28202.961;   -8.088;34973.230
719.867;28886.016;  -10.888;36394.449
720.440;28444.941;  -11.938;36663.008
721.013;29013.852;  -12.818;35102.426
721.587;28121.525;  -10.298;33985.266
722.160;27105.164;  -10.048;33524.965
722.733;26702.518;  -12.108;32987.043
723.306;26507.492;  -10.818;33066.301
723.880;27518.238;   -8.908;33399.500
724.453;26715.455;   -9.878;33468.297
725.026;25441.770;  -11.188;33816.637
725.599;26180.127;  -11.678;32797.996
726.172;27901.594;   -9.618;33187.434
726.745;27220.666;   -8.258;35136.613
727.318;26300.645;  -12.978;35751.730
727.891;25109.836;  -12.148;35890.430
728.463;24604.469;   -8.968;34822.090
729.036;24601.641;  -10.188;32895.086
729.609;26130.180;  -11.788;31823.225
730.182;26503.232;  -11.788;31445.283
730.754;24573.938;  -10.268;32373.223
731.327;22902.789;   -9.998;33676.820
731.900;22470.721;  -12.228;33417.000
732.472;23604.945;  -13.848;31978.498
733.045;24901.547;   -8.698;30368.777
733.617;23763.535;  -10.607;30574.215
734.190;24782.334;  -11.507;31280.975
734.762;26412.977;  -13.647;31674.412
735.334;24409.297;   -9.767;31247.291
735.907;23475.365;   -9.897;29876.211
736.479;24178.355;  -11.637;29808.488
737.051;25469.875;   -9.567;30233.547
737.623;25579.025;   -8.187;31469.086
738.195;25270.633;  -11.187;31784.225
738.768;25502.064;  -12.337;32120.523
739.340;24358.490;  -12.227;32094.342
739.912;23257.369;  -11.057;31312.680
740.484;22933.307;  -10.207;31946.238
741.056;21330.361;  -10.047;32984.059
741.628;20406.750;  -13.627;33897.715
742.199;21125.656;   -7.177;33213.016
742.771;23927.002;  -10.797;31369.113
743.343;26327.037;  -11.997;31865.473
743.915;26291.168;  -12.867;32388.631
744.487;24409.139;   -7.617;31079.568
745.058;23105.396;   -9.557;30570.107
745.630;23371.688;   -9.877;29970.127
746.201;23066.648;  -14.177;29186.766
746.773;21835.441;   -9.237;28805.723
747.344;22086.078;   -9.847;29591.223
747.916;22598.480;  -11.657;31412.201
748.487;22181.029;  -10.587;32194.898
749.059;22044.922;   -8.707;32533.719
749.630;21945.482;  -10.537;32158.518
750.201;22672.822;  -11.687;30855.395
750.773;23081.805;  -11.647;28622.555
751.344;22424.916;   -7.147;28405.732
751.915;21535.494;   -9.757;28461.551
752.486;21203.699;  -12.427;27842.850
753.057;20638.348;  -12.227;27845.008
753.628;19872.793;  -10.417;27728.107
754.199;18845.566;  -11.767;27381.086
754.770;18778.729;  -11.187;25882.203
755.341;19921.525;  -10.507;25886.184
755.912;19918.885;   -9.387;26050.861
756.483;18292.533;  -10.647;26798.779
757.054;18005.936;  -11.837;27048.238
757.625;18779.121;  -12.716;26294.838
758.195;19557.963;   -9.666;26142.076
758.766;21011.461;   -8.656;26392.234
759.337;20948.992;  -12.856;26334.594
759.907;20462.215;  -13.366;27579.652
760.478;20868.457;   -8.576;28352.770
761.048;20379.145;  -10.526;27325.088
761.619;20401.285;  -11.116;26460.428
762.189;20540.529;  -12.136;26029.826
762.760;19651.047;   -9.456;26430.145
763.330;18925.025;   -7.136;26670.902
763.900;19664.826;  -11.786;26603.021
764.471;19225.959;  -11.546;25542.740
765.041;17490.711;   -8.096;24358.459
765.611;16219.037;   -8.876;23991.297
766.181;15672.429;  -12.196;24470.236
766.751;15945.155;  -11.636;24845.975
767.321;16963.385;  -10.156;24533.633
767.891;17619.916;  -11.766;24916.492
768.461;17259.207;  -14.936;24776.771
769.031;16996.410;  -12.356;24757.988
769.601;17128.588;   -7.526;24181.088
770.171;17493.006;  -10.766;23670.387
770.741;16901.820;  -13.176;22960.045
771.311;15973.937;  -10.616;22917.523
771.880;15717.293;   -9.576;23562.941
772.450;15453.321;  -10.336;24216.500
773.020;15967.944;  -13.516;24140.398
773.589;16169.283;  -13.466;24414.857
774.159;15856.971;   -8.686;23858.717
774.729;16082.628;   -9.476;22942.135
775.298;15723.692;  -13.666;22324.033
775.867;14763.072;  -11.716;21140.313
776.437;13999.367;   -9.906;20838.092
777.006;14119.638;  -12.166;20599.510
777.576;13408.942;  -12.356;20508.809
778.145;13272.331;  -11.646;20732.947
778.714;13272.759;   -8.226;21062.465
779.283;13286.613;   -9.556;20949.664
779.853;13664.965;  -14.116;20508.623
780.422;13536.298;  -11.506;20649.082
780.991;13537.219;   -9.556;21527.520
781.560;13290.120;   -9.095;22632.658
782.129;11898.509;  -12.135;23048.277
782.698;11194.990;  -10.865;23438.555
783.267;11258.887;   -9.335;23267.734
783.836;11939.988;  -11.045;22415.133
784.404;12918.615;  -13.865;20443.152
784.973;12743.789;  -13.095;19699.150
785.542;12154.389;  -11.575;19763.828
786.111;11927.396;   -9.705;20341.408
786.679;11737.677;  -12.105;20207.967
787.248;11461.310;  -12.455;19516.465
787.817;10723.278;  -11.535;18900.363
788.385;11057.325;   -9.765;17879.121
788.954;12059.949;  -14.005;17658.301
789.522;12491.309;  -11.955;17788.879
790.090;12084.300;  -10.135;18118.277
790.659;12052.399;  -10.975;18338.736
791.227;12146.397;  -13.375;18508.615
791.795;11886.954;  -12.375;17898.254
792.364;11769.295;  -10.725;17295.133
792.932;11898.758;   -9.715;16822.051
793.500;11967.693;  -12.675;17040.148
794.068;11809.656;  -13.495;17179.787
794.636;10526.963;  -10.885;16664.246
795.204; 9608.797;  -11.045;16524.545
795.772; 9436.951;  -13.175;17274.564
796.340;10340.664;  -12.445;17891.002
796.908;10622.804;   -9.735;17648.561
797.476;10670.487;   -9.815;17064.080
798.044;10644.792;  -13.985;16672.777
798.612;10376.735;  -13.115;17023.996
799.180; 9952.619;  -10.185;16561.615
799.747; 9263.191;   -9.055;15962.773
800.315; 8264.121;  -12.385;15296.992
800.883; 7891.986;  -15.035;14801.771
801.450; 8392.432;  -10.365;14534.430
802.018; 9241.437;   -9.855;14173.248
802.585; 9989.231;  -11.905;14029.547
803.153; 9834.051;  -11.585;13836.846
803.720; 9135.068;   -9.095;13567.324
804.287; 8745.612;   -9.135;13360.622
804.855; 8980.366;  -11.604;13681.981
805.422; 9428.887;  -11.794;13536.560
805.989; 8770.974;  -10.734;13355.958
806.556; 8530.912;  -10.444;13747.896
807.124; 8640.670;  -12.764;13987.376
807.691; 8713.900;  -12.964;14038.674
808.258; 9052.732;  -11.134;14120.152
808.825; 9212.183;   -9.854;13860.111
809.392; 8638.960;  -10.504;13268.790
809.959; 8197.114;  -13.054;12680.389
810.526; 7965.147;   -8.294;12427.308
811.093; 8029.048;   -8.394;12030.105
811.659; 7773.157;  -12.304;11653.664
812.226; 7163.529;  -13.944;11637.183
812.793; 7012.283;  -10.484;11611.521
813.360; 7187.290;  -10.144;11885.181
813.926; 7129.729;  -11.684;12770.539
814.493; 6946.372;  -13.644;12677.638
815.060; 6592.272;   -9.724;11974.336
815.626; 6157.134;   -9.854;11594.715
816.193; 6174.673;  -13.254;11579.474
816.759; 6198.020;  -13.204;11666.972
817.325; 6497.126;   -9.434;11325.530
817.892; 6549.633;  -10.134;11105.369
818.458; 6194.356;  -13.474;10843.928
819.024; 5868.242;  -11.854;10714.406
819.591; 5741.333;  -10.244;10469.165
820.157; 5607.934;  -10.704;10235.523
820.723; 5719.218;  -12.324;10847.563
821.289; 6137.150;   -9.444;11040.980
821.855; 6395.483;   -8.374;10357.100
822.421; 6358.761;  -10.234; 9978.918
822.987; 6310.917;  -13.294; 9754.177
823.553; 6485.960;  -10.884;10065.755
824.119; 6436.596;   -8.884;10036.294
824.685; 6174.064;   -6.784;10029.192
825.251; 5759.280;  -12.004;10199.230
825.816; 5767.229;  -11.474; 9820.189
826.382; 5921.272;   -9.174; 9297.248
826.948; 5879.731;   -9.214; 9381.347
827.513; 5611.183;  -10.774; 9450.726
828.079; 5319.882;  -11.924; 9472.444
828.645; 5198.356;  -10.543; 9292.643
829.210; 5197.056;  -10.533; 9065.341
829.776; 5037.778;  -10.753; 9132.620
830.341; 4900.564;  -10.173; 9092.878
830.906; 4794.994;  -10.743; 9078.557
831.472; 4873.691;  -11.113; 8534.535
832.037; 4911.947;  -10.603; 8677.874
832.602; 4903.957;  -13.323; 8628.692
833.167; 4953.068;  -10.823; 8879.031
833.733; 4673.597;  -10.113; 9189.790
834.298; 4530.974;  -13.583; 9052.608
834.863; 4684.078;  -12.703; 8895.087
835.428; 4751.250;  -10.523; 8824.266
835.993; 4655.064;   -6.963; 8845.385
836.558; 4439.415;  -10.763; 8888.563
837.123; 4353.711;   -9.903; 8966.582
837.688; 4277.728;   -9.913; 8617.860
838.253; 4316.724;  -10.283; 8590.699
838.817; 4593.448;  -12.963; 8443.797
839.382; 4662.537;  -14.243; 8799.356
839.947; 4553.401;  -10.733; 8810.595
840.511; 4331.020;   -9.383; 8796.394
841.076; 4282.365;  -12.563; 8347.231
841.641; 4282.080;  -12.953; 8224.330
842.205; 3901.985;   -7.043; 8223.349
842.770; 3697.743;   -8.163; 8622.107
843.334; 3806.444;  -12.503; 8410.386
843.898; 4035.389;  -11.693; 8337.465
844.463; 4086.289;  -10.203; 8506.283
845.027; 3969.097;   -9.533; 8280.962
845.591; 3841.146;  -13.443; 8231.141
846.156; 3783.733;  -13.143; 7969.179
846.720; 3688.027;   -9.433; 7768.278
847.284; 3264.692;  -11.033; 7630.957
847.848; 2916.438;  -10.403; 7472.395
848.412; 3003.823;  -11.553; 7437.394
848.976; 3374.884;   -8.393; 7674.592
849.540; 3649.081;   -8.713; 7836.011
850.104; 3640.790;  -12.463; 7913.669
850.668; 3571.673;  -12.973; 7694.508
851.232; 3368.909;  -10.793; 7756.887
851.796; 3232.032;  -10.662; 7926.545
852.359; 3378.717;  -13.082; 7827.844
852.923; 3392.841;  -12.192; 7641.163
853.487; 3352.038;  -11.912; 7342.501
854.050; 3448.898;  -10.892; 7042.820
854.614; 3423.257;  -13.992; 7151.338
855.177; 3232.898;  -11.732; 7105.077
855.741; 3066.119;   -8.962; 6989.675
856.304; 3038.461;   -9.442; 6596.634
856.868; 3038.803;  -14.192; 6356.272
857.431; 3068.760;  -12.702; 6468.571
857.995; 3318.521;   -9.942; 6373.210
858.558; 3428.884;   -9.112; 6324.448
859.121; 3054.168;  -12.932; 6408.327
859.684; 2730.641;  -13.442; 6347.886
860.247; 2643.583;  -10.632; 6321.264
860.810; 2769.446;  -11.272; 6301.903
861.374; 2924.330;   -9.832; 6607.881
861.937; 2949.735;  -11.762; 6408.200
862.500; 2962.142;   -9.722; 6572.639
863.062; 2914.688;  -10.512; 6387.297
863.625; 2803.541;  -11.232; 6190.836
864.188; 2644.194;  -14.112; 5807.254
864.751; 2426.248;  -11.302; 5682.413
865.314; 2316.768;  -10.112; 5547.492
865.876; 2437.314;  -12.182; 5500.150
866.439; 2642.508;  -10.722; 5415.909
867.002; 2687.329;   -9.252; 5501.567
867.564; 2545.949;   -9.572; 5413.946
868.127; 2322.231;  -13.142; 5160.325
868.689; 2197.608;  -12.902; 5133.183
869.252; 2098.375;   -9.732; 5252.382
869.814; 2021.830;   -9.432; 5297.141
870.377; 2095.959;  -11.552; 5390.919
870.939; 2179.474;   -9.052; 5599.898
871.501; 2126.218;  -10.982; 5248.336
872.063; 2130.188;  -12.292; 4854.235
872.626; 2102.742;  -14.912; 4817.074
873.188; 2069.151;  -13.112; 4987.732
873.750; 2035.680;  -13.442; 4868.651
874.312; 1949.718;   -9.402; 4779.330
874.874; 1854.058;  -11.062; 4866.348
875.436; 1858.818;  -13.931; 4718.887
875.998; 1834.648;   -9.561; 4660.005
876.560; 1716.765;  -11.321; 4462.964
877.122; 1616.525;  -12.221; 4145.042
877.683; 1559.726;  -12.191; 4056.481
878.245; 1589.987;  -12.101; 3950.740
878.807; 1674.714;   -8.971; 4058.958
879.369; 1707.375;  -12.071; 3954.677
879.930; 1616.019;  -14.621; 3941.495
880.492; 1562.160;  -10.311; 4067.014
881.053; 1520.682;  -10.901; 3859.633
881.615; 1487.260;  -14.411; 3776.071
882.176; 1461.653;  -13.761; 3734.750
882.738; 1467.327;   -9.181; 3678.489
883.299; 1425.535;  -11.791; 3405.407
883.860; 1340.555;  -13.121; 3351.106
884.422; 1243.994;  -11.211; 3394.044
884.983; 1177.703;  -10.091; 3166.443
885.544; 1144.603;   -8.461; 3189.802
886.105; 1102.154;  -12.361; 3160.360
886.666; 1038.476;  -14.141; 3093.059
887.227; 1011.492;  -11.361; 2941.957
887.788;  994.345;  -11.401; 2974.836
888.349;  928.735;  -13.791; 2721.214
888.910;  860.193;  -13.191; 2696.493
889.471;  810.209;   -9.881; 2560.172
890.032;  760.480;   -9.881; 2558.190
890.593;  722.603;  -10.371; 2567.669
891.153;  703.730;  -13.301; 2460.307
891.714;  681.078;  -11.431; 2372.046
892.275;  637.946;  -11.291; 2309.505
892.835;  629.750;  -11.471; 2382.543
893.396;  628.419;  -11.541; 2295.502
893.956;  597.040;  -11.181; 2162.420
894.517;  538.566;  -11.741; 2125.439
895.077;  474.076;  -11.671; 2086.978
895.638;  430.249;  -11.311; 2126.316
896.198;  418.988;   -9.831; 1838.275
896.758;  419.531;   -8.421; 1892.813
897.319;  402.643;  -12.351; 1792.232
897.879;  368.577;  -13.511; 1762.751
898.439;  346.959;  -12.001; 1661.149
898.999;  336.416;  -10.180; 1781.468
899.559;  328.309;  -12.030; 1703.347
900.119;  321.227;  -15.710; 1537.525
900.679;  314.349;   -8.900; 1638.384
901.239;  297.970;   -8.340; 1527.902
901.799;  275.507;  -13.910; 1456.441
902.359;  258.164;  -13.460; 1357.140
902.919;  251.746;  -11.490; 1331.118
903.479;  247.217;  -12.110; 1317.257
904.038;  242.824;  -11.720; 1262.595
904.598;  231.290;  -13.610; 1152.034
905.158;  219.527;  -11.040; 1240.893
905.717;  211.542;  -10.900; 1233.691
906.277;  205.084;  -15.080; 1217.330
906.836;  201.608;  -13.380; 1222.408
907.396;  198.347;  -10.780; 1193.047
907.955;  194.778;   -8.500; 1182.526
908.515;  188.351;  -12.760; 1099.364
909.074;  183.726;  -11.900; 1092.863
909.633;  179.484;   -8.950; 1069.121
910.192;  177.479;   -8.770; 1196.460
910.752;  173.622;  -12.390; 1029.960
911.311;  168.928;  -13.680; 1009.780
911.870;  166.847;  -12.370;  971.460
912.429;  165.503;  -10.900; 1094.080
912.988;  161.998;  -11.690; 1081.060
913.547;  156.970;  -13.240;  940.380
914.106;  155.583;  -11.990;  999.420
914.665;  155.242;   -9.990;  984.020
915.224;  152.120;  -12.880; 1035.760
915.782;  149.802;  -12.350;  922.560
916.341;  150.354;   -9.110; 1049.840
916.900;  148.213;   -9.270;  925.260
917.458;  146.219;  -13.240;  884.220
918.017;  144.509;  -13.550;  942.600
918.576;  142.407;  -12.320;  904.440
919.134;  142.496;  -11.490;  837.980
919.693;  142.606;  -13.670;  893.060
920.251;  141.504;  -15.470;  876.500
920.809;  141.287;  -11.290;  839.580
921.368;  140.681;  -10.210;  885.360
921.926;  138.917;  -12.140;  842.940
922.484;  136.483;  -13.080;  903.360
923.042;  135.369;  -11.720;  880.340
923.601;  136.731;   -7.480;  998.680
924.159;  135.657;  -11.570;  935.560
924.717;  133.462;  -13.840;  841.080
925.275;  134.605;  -10.640;  903.240
925.833;  134.464;  -11.540;  779.320
926.391;  137.057;  -12.960;  938.380
926.949;  135.785;  -14.130;  857.680
927.506;  136.623;  -11.750;  903.500
928.064;  136.640;  -10.250;  877.580
928.622;  134.941;  -13.030;  880.100
929.180;  134.662;  -13.400;  814.180
929.737;  136.700;  -10.700;  808.540
930.295;  136.720;  -10.070;  928.480
930.853;  137.701;  -11.960;  849.100
931.410;  138.418;  -13.120;  821.120
931.968;  140.966;  -10.770;  940.660
932.525;  140.568;  -10.680;  909.380
933.082;  142.500;  -13.130;  811.440
933.640;  147.556;  -13.210;  925.900
934.197;  152.140;  -11.060;  886.360
934.754;  155.265;   -9.580;  897.780
935.312;  154.537;  -14.000;  863.340
935.869;  152.785;  -10.710; 1012.980
936.426;  150.443;   -9.860;  872.800
936.983;  151.076;   -9.710;  889.020
937.540;  152.283;  -13.990;  838.280
938.097;  153.062;  -14.040;  940.120
938.654;  154.604;  -10.310;  898.860
939.211;  153.897;  -10.560;  952.480
939.768;  150.750;  -13.900;  915.420
940.324;  151.336;  -14.760;  904.200
940.881;  155.285;  -10.370;  878.500
941.438;  160.854;   -8.260; 1021.200
941.995;  160.589;  -12.540;  992.560
942.551;  158.592;  -14.670;  875.620
943.108;  157.850;  -10.450;  937.920
943.664;  157.383;  -10.750;  869.340
944.221;  161.879;  -11.550; 1088.140
944.777;  163.640;  -14.770;  869.680
945.334;  167.407;  -12.820;  884.840
945.890;  172.203;  -10.130;  946.480
946.446;  172.315;  -13.470;  947.020
947.003;  171.864;  -12.120;  964.940
947.559;  174.232;   -9.980; 1063.040
948.115;  175.036;   -9.080; 1026.540
948.671;  177.613;  -10.830;  967.300
949.227;  175.484;  -12.440;  859.560
949.783;  167.569;  -12.910;  858.900
950.339;  164.138;  -10.270;  991.000
950.895;  160.997;  -13.630; 1023.840
951.451;  159.825;  -15.100;  925.280
952.007;  161.177;  -11.330;  998.540
952.563;  161.159;  -10.580;  937.780
953.118;  160.189;  -13.440;  904.940
953.674;  156.999;  -12.710;  935.780
954.230;  157.644;  -10.350;  949.640
954.785;  159.282;   -9.190;  936.640
955.341;  157.477;  -11.200;  998.160
955.897;  151.415;  -16.560;  834.660
956.452;  146.612;  -12.570;  953.840
957.008;  142.647;   -7.970; 1083.640
957.563;  141.945;  -11.940; 1009.540
958.118;  141.141;  -13.450;  877.700
958.674;  143.322;  -12.030;  946.780
959.229;  142.878;   -9.410; 1013.980
959.784;  142.616;  -12.000;  832.400
960.339;  141.002;  -14.780; 1001.280
960.894;  133.652;   -9.860;  963.760
961.449;  128.383;   -9.970;  859.960
962.004;  128.376;  -10.900; 1212.840
962.559;  123.532;  -13.150;  860.140
963.114;  121.070;  -13.740;  742.480
963.669;  123.567;   -9.820;  915.500
964.224;  126.332;  -13.890;  874.340
964.779;  127.421;  -12.600;  828.420
965.334;  126.697;  -10.950; 1017.860
965.888;  120.071;  -11.170;  875.360
966.443;  116.712;  -12.540;  972.380
966.998;  114.796;  -15.780;  819.460
967.552;  116.559;   -9.760;  908.380
968.107;  113.500;   -9.060;  868.300
968.661;  113.789;  -11.950;  922.440
969.216;  110.451;  -12.800;  856.280
969.770;  110.125;  -11.210;  917.200
970.324;  108.304;  -11.610;  923.140
970.879;  106.730;  -11.370;  947.180
971.433;  106.016;  -12.540;  952.720
971.987;  104.520;  -11.320;  895.340
972.541;  104.359;  -10.720;  917.100
973.095;  106.693;   -9.680; 1009.460
973.649;  105.288;  -11.440;  809.480
974.203;  105.453;  -11.210;  829.040
974.757;  104.291;  -10.240;  855.220
975.311;  102.890;  -13.720;  872.600
975.865;  102.820;  -13.770;  881.820
976.419;  104.683;  -11.690;  857.400
976.973;  104.756;   -9.510;  849.620
977.526;  104.459;  -12.620;  949.920
978.080;   99.334;  -12.010;  796.780
978.634;   97.646;  -10.170;  921.320
979.187;   93.836;   -9.020;  905.400
979.741;   93.311;   -9.820; 1018.380
980.294;   91.327;  -14.870;  789.160
980.848;   89.736;  -12.380;  717.220
981.401;   90.481;  -10.350;  816.540
981.955;   91.268;  -13.720;  844.300
982.508;   88.808;  -11.490;  746.340
983.061;   88.826;  -10.000;  915.260
983.615;   87.402;  -11.480;  798.800
984.168;   84.915;  -13.220;  770.080
984.721;   83.054;  -13.960;  880.760
985.274;   80.710;  -10.870;  867.500
985.827;   78.395;   -9.790;  834.220
986.380;   76.551;  -13.120;  721.340
986.933;   75.951;  -12.450;  864.800
987.486;   75.295;  -10.210;  861.920
988.039;   75.586;   -8.430;  863.100
988.591;   74.043;  -10.520;  893.260
989.144;   72.079;  -14.860;  737.260
989.697;   71.574;  -13.080;  758.740
990.250;   71.390;  -10.150;  858.100
990.802;   69.621;  -13.430;  755.860
991.355;   69.350;  -12.750;  974.880
991.907;   66.366;  -12.040;  864.320
992.460;   63.382;  -11.330;  753.760
993.012;   61.977;  -13.610;  749.540
993.565;   59.637;  -13.460;  711.360
994.117;   60.166;   -9.360;  950.780
994.669;   58.017;  -11.300;  701.320
995.221;   58.132;  -13.540;  791.920
995.774;   57.137;  -13.430;  787.580
996.326;   56.754;  -12.520;  740.220
996.878;   57.441;  -10.950;  838.420
997.430;   55.281;  -14.300;  699.860
997.982;   54.637;  -13.760;  750.140
998.534;   53.632;  -11.530;  739.060
999.086;   52.368;  -10.310;  738.220
999.638;   51.907;  -12.530;  661.380
1000.190;   50.260;  -11.840;  699.320
1000.741;   50.159;  -10.260;  742.700
1001.293;   49.619;   -8.860;  686.020
1001.845;   48.679;  -13.700;  676.640
1002.396;   49.256;  -12.100;  743.400
1002.948;   47.807;  -12.760;  737.400
1003.500;   47.387;  -10.380;  723.780
1004.051;   47.353;  -11.900;  907.580
1004.603;   45.970;  -12.250;  791.820
1005.154;   42.788;  -13.210;  608.980
1005.705;   41.698;  -10.950;  723.960
1006.257;   41.753;  -13.880;  707.220
1006.808;   40.515;  -12.840;  685.460
1007.359;   39.918;  -10.570;  763.240
1007.910;   39.074;   -9.620;  646.640
1008.461;   39.092;  -13.630;  732.940
1009.013;   37.062;  -17.200;  588.340
1009.564;   39.115;  -10.200;  793.520
1010.115;   37.038;  -12.570;  597.040
1010.665;   37.240;  -15.150;  602.160
1011.216;   37.218;  -14.480;  667.920
1011.767;   36.293;  -11.340;  697.920
1012.318;   36.397;   -9.780;  736.980
1012.869;   35.514;  -12.380;  679.000
1013.419;   34.911;  -15.560;  603.120
1013.970;   35.492;  -11.010;  666.640
1014.521;   34.652;  -11.610;  620.620
1015.071;   34.991;  -13.450;  670.380
1015.622;   34.351;  -13.870;  635.460
1016.172;   33.612;  -11.610;  596.820
1016.723;   34.064;  -12.120;  614.380
1017.273;   33.840;  -13.620;  604.160
1017.823;   33.624;  -14.140;  650.340
1018.374;   32.590;  -12.800;  611.760
1018.924;   33.120;  -12.340;  716.880
1019.474;   32.717;  -11.410;  718.880
1020.024;   31.566;  -14.770;  657.580
1020.574;   31.800;   -9.780;  726.160
1021.124;   32.825;   -8.560;  673.580
1021.674;   30.886;  -15.190;  559.120
1022.224;   32.337;  -13.530;  708.940
1022.774;   31.687;  -13.280;  668.820
1023.324;   32.132;  -10.690;  753.520
1023.874;   33.604;  -10.240;  875.760
1024.423;   31.270;  -12.540;  613.700
1024.973;   30.211;  -10.010;  610.760
1025.523;   29.165;  -10.550;  620.960
1026.072;   29.406;  -13.560;  606.420
1026.622;   29.237;  -15.120;  675.740
1027.172;   29.975;  -11.260;  715.660
1027.721;   28.662;  -11.410;  601.220
1028.270;   29.955;  -13.530;  663.400
1028.820;   28.698;  -13.680;  638.080
1029.369;   28.792;  -13.520;  612.700
1029.918;   28.555;  -10.980;  649.840
1030.468;   28.747;  -13.530;  564.780
1031.017;   28.935;  -13.170;  634.800
1031.566;   27.790;  -12.200;  608.900
1032.115;   27.783;   -9.960;  694.500
1032.664;   27.071;  -13.210;  596.480
1033.213;   27.641;  -12.500;  735.420
1033.762;   26.925;  -11.910;  635.620
1034.311;   26.794;   -9.640;  677.220
1034.860;   27.147;  -13.310;  691.000
1035.408;   26.615;  -11.830;  722.720
1035.957;   27.550;  -12.000;  719.540
1036.506;   24.612;  -11.690;  530.800
1037.055;   27.316;  -10.990;  844.320
1037.603;   26.472;  -15.120;  664.000
1038.152;   24.107;  -12.450;  534.760
1038.700;   25.109;  -10.560;  585.740
1039.249;   25.171;  -11.080;  681.220
1039.797;   25.201;  -12.540;  633.360
1040.345;   25.141;  -11.920;  705.420
1040.894;   24.970;  -11.410;  625.300
1041.442;   24.367;  -14.320;  632.200
1041.990;   23.927;  -16.240;  559.160
1042.538;   23.468;  -11.680;  536.180
1043.087;   22.976;  -10.760;  570.860
1043.635;   24.742;  -11.850;  670.500
1044.183;   23.763;  -15.480;  586.400
1044.731;   23.361;  -11.770;  576.000
1045.279;   22.722;  -13.090;  674.920
1045.827;   24.893;  -12.440;  892.400
1046.374;   22.174;  -13.840;  515.420
1046.922;   21.421;  -13.220;  590.580
1047.470;   23.767;  -10.230;  691.300
1048.018;   22.935;  -14.590;  647.960
1048.565;   24.048;  -12.050;  708.600
1049.113;   21.678;  -11.650;  557.000
1049.660;   22.555;  -10.510;  629.660
1050.208;   22.210;  -13.310;  675.640
1050.755;   21.310;  -15.900;  606.580
1051.303;   21.966;  -11.430;  686.820
1051.850;   21.287;   -8.480;  635.120
1052.397;   19.637;  -15.010;  473.960
1052.945;   20.582;  -13.960;  617.760
1053.492;   21.713;  -13.150;  741.840
1054.039;   21.079;   -9.630;  720.180
1054.586;   20.303;  -13.680;  557.240
1055.133;   20.992;  -14.570;  693.140
1055.680;   21.408;  -13.820;  646.620
1056.227;   20.136;  -11.730;  542.780
1056.774;   22.156;  -12.480;  794.980
1057.321;   19.431;  -13.930;  523.260
1057.868;   19.655;  -11.690;  651.320
1058.415;   19.130;   -9.520;  651.980
1058.961;   20.112;  -13.160;  678.940
1059.508;   20.005;  -12.920;  643.820
1060.055;   19.390;  -11.920;  581.780
1060.601;   20.386;  -11.500;  624.300
1061.148;   19.442;  -14.330;  616.820
1061.694;   18.747;  -16.870;  592.580
1062.241;   18.727;  -10.330;  596.320
1062.787;   19.281;  -10.620;  663.140
1063.334;   20.742;  -10.110;  808.560
1063.880;   18.684;  -13.400;  668.360
1064.426;   18.810;  -10.680;  706.820
1064.972;   17.871;   -9.920;  601.340
1065.518;   17.365;  -10.980;  566.640
1066.065;   18.141;  -14.890;  624.460
1066.611;   16.770;  -12.870;  598.800
1067.157;   17.892;  -12.950;  641.860
1067.703;   17.644;  -13.540;  668.480
1068.249;   17.452;  -13.540;  605.220
1068.794;   17.315;  -12.600;  626.880
1069.340;   17.160;  -10.620;  578.960
1069.886;   17.526;  -12.830;  590.700
1070.432;   15.675;  -14.870;  541.720
1070.977;   15.644;  -11.980;  601.080
1071.523;   16.115;   -8.200;  573.060
1072.068;   16.239;  -12.330;  582.000
1072.614;   15.271;  -16.370;  527.760
1073.160;   16.992;  -11.100;  687.040
1073.705;   14.598;  -10.480;  572.520
1074.250;   15.946;  -14.520;  559.900
1074.796;   17.034;  -11.460;  655.160
1075.341;   16.582;  -11.950;  664.100
1075.886;   15.876;  -11.460;  594.240
1076.431;   16.202;  -13.770;  649.880
1076.976;   15.018;  -12.680;  639.220
1077.521;   14.500;  -13.170;  583.080
1078.067;   14.418;  -10.860;  579.400
1078.612;   15.228;  -13.920;  661.620
1079.156;   14.194;  -13.880;  601.540
1079.701;   14.820;  -13.120;  693.260
1080.246;   15.893;   -9.940;  696.300
1080.791;   15.284;  -14.740;  625.020
1081.336;   15.495;  -13.750;  659.320
1081.880;   14.297;  -13.400;  649.680
1082.425;   13.697;  -12.220;  573.480
1082.970;   15.789;  -11.610;  717.040
1083.514;   13.880;  -13.580;  597.000
1084.059;   12.427;  -12.810;  586.720
1084.603;   12.570;  -12.320;  565.840
1085.147;   14.298;  -13.190;  645.220
1085.692;   14.558;  -12.480;  716.800
1086.236;   12.652;  -13.020;  503.140
1086.780;   15.133;   -9.190;  751.440
1087.325;   13.589;  -12.480;  654.620
1087.869;   13.161;  -12.450;  610.700
1088.413;   13.975;  -12.240;  705.040
1088.957;   11.915;   -9.020;  543.400
1089.501;   13.867;  -10.320;  766.640
1090.045;   13.295;  -12.720;  726.480
1090.589;   10.903;  -13.690;  569.920
1091.133;   12.963;  -10.020;  673.340
1091.676;   12.597;  -12.330;  591.940
1092.220;   11.870;  -14.970;  600.920
1092.764;   12.853;  -12.430;  706.960
1093.307;   12.254;   -9.800;  673.780
1093.851;   11.227;  -14.970;  556.540
1094.395;   12.424;  -15.310;  683.140
1094.938;   11.447;  -10.370;  632.520
1095.482;   10.786;  -11.050;  559.800
1096.025;   12.343;  -11.840;  710.880
1096.568;   12.234;  -12.840;  779.280
1097.112;    9.541;  -14.700;  508.180
1097.655;   11.346;   -8.720;  603.000
1098.198;    9.295;  -13.610;  600.180
1098.741;   10.562;  -13.350;  612.860
1099.285;   11.112;  -11.230;  657.300
1099.828;    9.388;  -11.840;  439.400
1100.371;   11.163;  -10.840;  608.160
1100.914;   11.091;  -14.190;  682.660
1101.457;   10.161;  -11.240;  679.900
1101.999;    9.303;  -11.270;  584.680
1102.542;   10.813;  -11.480;  641.440
1103.085;    9.817;  -11.750;  658.500
1103.628;   10.515;  -11.400;  762.060
1104.170;    9.702;  -10.490;  588.280
1104.713;   10.175;  -10.600;  646.700
1105.256;    9.090;  -14.360;  557.440
1105.798;    8.292;  -13.210;  499.980
1106.341;   10.074;  -10.270;  728.900
1106.883;    8.832;  -12.200;  521.340
1107.425;    8.890;  -13.110;  668.180
1107.968;    8.676;  -12.840;  612.380
1108.510;    9.556;   -6.480;  684.960
1109.052;    7.828;  -13.940;  612.620
1109.594;    8.454;  -13.690;  554.440
1110.136;    8.862;  -11.880;  643.220
1110.679;    7.826;   -9.500;  633.080
1111.221;    8.741;  -14.160;  604.460
1111.763;    8.162;  -13.980;  559.220
1112.304;    8.214;  -13.880;  547.140
1112.846;    8.680;  -12.210;  666.240
1113.388;   10.716;  -11.390;  942.180
1113.930;    8.155;  -14.540;  694.200
1114.472;    7.285;  -12.640;  606.540
1115.013;    6.051;  -11.620;  551.280
1115.555;    6.607;  -13.640;  587.100
1116.097;    6.768;  -15.380;  579.480
1116.638;    7.257;  -12.640;  684.600
1117.180;    7.596;   -9.850;  667.740
1117.721;    7.203;  -13.690;  568.580
1118.262;    7.530;  -12.680;  677.960
1118.804;    7.495;  -12.530;  637.340
1119.345;    6.583;  -11.690;  578.400
1119.886;    8.195;  -13.380;  704.040
1120.427;    6.493;  -14.070;  589.020
1120.969;    5.585;  -13.500;  597.920
1121.510;    5.269;  -11.480;  563.060
1122.051;    7.315;  -12.830;  723.580
1122.592;    5.581;  -14.290;  655.420
1123.133;    4.530;  -12.400;  547.940
1123.673;    6.641;  -10.130;  706.480
1124.214;    5.619;  -12.930;  612.460
1124.755;    6.950;  -14.380;  639.460
1125.296;    5.733;  -14.000;  627.320
1125.836;    7.166;  -10.070;  691.500
1126.377;    5.850;  -12.640;  599.660
1126.918;    5.534;  -12.960;  614.980
1127.458;    4.827;  -13.350;  622.220
1127.999;    5.778;  -10.750;  656.980
1128.539;    5.857;  -12.350;  694.240
1129.079;    4.672;  -14.860;  632.720
1129.620;    4.330;  -13.840;  558.100
1130.160;    4.132;  -12.330;  539.480
1130.700;    5.346;  -14.530;  640.840
1131.240;    5.323;  -12.530;  643.700
1131.781;    4.448;  -14.450;  619.680
1132.321;    4.583;   -9.790;  599.120
1132.861;    3.799;  -14.860;  564.200
1133.401;    3.263;  -14.290;  593.940
1133.941;    4.201;  -11.750;  626.280
1134.481;    3.017;   -9.920;  597.580
1135.020;    3.796;  -12.290;  609.160
1135.560;    4.321;  -11.650;  674.940
1136.100;    2.567;  -16.270;  501.160
1136.640;    2.925;  -10.890;  510.480
1137.179;    4.157;  -14.180;  537.960
1137.719;    3.804;  -16.250;  605.400
1138.258;    3.523;  -14.230;  587.360
1138.798;    3.684;   -9.090;  663.780
1139.337;    3.056;  -15.130;  482.840
1139.877;    3.991;  -13.680;  642.360
1140.416;    5.560;  -11.320;  878.060
1140.955;    2.336;  -10.860;  535.380
1141.494;    3.545;  -12.920;  669.280
1142.034;    2.730;  -13.930;  583.520
1142.573;    3.813;  -11.440;  646.280
1143.112;    1.760;  -12.000;  553.480
1143.651;    2.551;  -13.670;  536.480
1144.190;    3.764;  -12.730;  691.640
1144.729;    2.871;  -14.560;  607.420
1145.267;    2.252;  -11.830;  584.900
1145.806;    3.369;  -12.230;  637.040
1146.345;    2.247;  -14.130;  635.020
1146.884;    2.438;  -11.590;  622.500
1147.422;    1.751;  -12.550;  533.060
1147.961;    3.149;  -11.180;  708.460
1148.500;    3.480;  -11.510;  669.720
1149.038;    2.829;  -11.640;  632.500
1149.577;    2.642;  -10.130;  698.640
1150.115;    0.851;  -13.970;  452.280
1150.653;    2.096;  -14.520;  607.340
1151.192;    1.827;  -12.810;  552.920
1151.730;    2.045;   -9.100;  652.560
1152.268;    1.825;  -12.220;  589.520
1152.806;    1.075;  -14.140;  571.180
1153.344;    0.105;  -12.350;  577.640
1153.882;    1.567;   -8.980;  600.060
1154.421;    0.544;  -15.190;  470.620
1154.958;    0.558;  -15.210;  595.240
1155.496;    2.072;  -12.850;  645.280
1156.034;    1.186;   -9.940;  721.880
1156.572;    2.434;  -13.570;  667.060
1157.110;   -0.162;  -14.590;  473.940
1157.647;    1.128;  -13.030;  676.960
1158.185;    0.271;  -12.140;  564.320
1158.723;    0.301;  -14.390;  509.200
1159.260;    1.257;  -14.090;  701.700
1159.798;    1.277;  -11.920;  658.160
1160.335;    0.233;  -11.110;  631.820

