gmr_right
Integration time [ms]: 4415.405
Averaging Nr. [scans]: 10
Smoothing Nr. [pixels]: 0
Data measured with spectrometer [name]: 7414430SP
Wave   ;Sample   ;Dark     ;Reference
[nm]   ;[counts] ;[counts] ;[counts] 

288.544; 5619.711; 5481.567;    6.613
289.143; 4577.407; 4445.805;   14.216
289.742; 5973.558; 5944.782;   11.816
290.341; 5730.780; 5549.822;   -4.936
290.940; 5251.237; 5126.334;    0.852
291.538; 6639.014; 6565.967;    1.792
292.137; 5837.758; 5724.192;    6.262
292.736; 7681.880; 7451.822;    8.164
293.335; 5341.148; 5236.041;   -6.418
293.934; 5791.164; 5668.136;   -2.904
294.532; 8225.771; 8170.262;   -5.162
295.131; 6478.116; 6327.777;  -10.283
295.730; 6266.375; 6165.880;  -16.141
296.328; 6044.982; 5919.741;  -14.740
296.927; 6000.903; 5823.527;   -8.768
297.525; 5963.858; 5870.784;  -15.255
298.124; 4825.712; 4719.534;  -22.063
298.722; 5836.817; 5667.405;  -14.796
299.321; 5385.427; 5160.111;  -10.466
299.919; 5751.374; 5655.808;  -10.979
300.518; 5245.096; 5062.438;  -12.077
301.116; 5214.012; 5088.125;  -13.509
301.715; 5575.894; 5476.557;  -11.939
302.313; 5402.926; 5256.375;  -15.424
302.911; 5755.676; 5621.171;  -19.833
303.509; 7570.411; 7470.388;   -3.567
304.108; 5878.329; 5754.438;   -9.553
304.706; 6394.933; 6182.500;   -8.582
305.304; 6459.188; 6357.468;  -12.348
305.902; 6143.936; 5985.563;  -14.411
306.500; 5715.288; 5621.059;   -7.194
307.098; 5900.402; 5766.937;   -9.322
307.696; 6301.761; 6148.666;  -19.192
308.294; 5800.881; 5652.933;   -9.736
308.892; 6039.235; 5935.455;  -15.482
309.490; 5558.834; 5442.755;  -14.107
310.088; 6415.320; 6295.396;  -15.862
310.686; 6589.847; 6399.270;  -10.781
311.284; 6185.331; 6134.692;  -14.878
311.882; 5704.042; 5647.399;   -9.948
312.480; 5512.127; 5377.040;  -15.503
313.078; 6646.169; 6571.419;  -17.262
313.675; 5459.888; 5344.059;   -3.694
314.273; 6541.915; 6491.006;  -18.246
314.871; 4466.938; 4387.228;  -15.190
315.468; 5158.276; 5086.171;  -12.633
316.066; 5513.133; 5378.019;   -5.765
316.664; 5191.109; 5124.990;  -14.317
317.261; 7637.591; 7501.531;   -8.677
317.859; 6398.665; 6383.247;  -11.804
318.456; 6963.632; 6947.801;   -3.107
319.054; 6514.023; 6478.350;   -3.062
319.651; 6191.994; 6074.594;   -6.706
320.249; 6834.394; 6764.594;   -5.206
320.846; 5870.323; 5767.831;   -4.679
321.443; 7110.122; 7003.613;   -7.920
322.041; 6940.454; 6863.432;  -14.105
322.638; 5862.661; 5873.557;   -6.263
323.235; 5418.326; 5353.375;   -7.424
323.833; 6197.481; 6144.042;  -14.765
324.430; 4932.717; 4823.814;  -10.550
325.027; 7491.603; 7492.045;   -9.951
325.624; 5135.774; 5037.771;   -3.712
326.221; 5536.706; 5515.481;   -9.368
326.818; 6802.421; 6752.095;   -5.637
327.415; 5980.881; 5883.005;   -6.699
328.012; 5440.803; 5293.117;   -5.713
328.609; 5772.013; 5667.824;   -9.983
329.206; 6302.272; 6302.553;   -7.154
329.803; 5806.887; 5770.431;   -1.682
330.400; 5435.326; 5373.857;   -2.741
330.997; 6504.596; 6398.510;   -4.339
331.594; 6298.834; 6309.646;  -10.278
332.191; 5611.008; 5513.435;   -6.967
332.787; 6697.355; 6623.131;   -0.480
333.384; 5865.422; 5864.241;  -10.333
333.981; 6452.671; 6493.301;  -19.900
334.578; 5343.080; 5197.644;  -19.816
335.174; 5561.988; 5451.614;  -15.844
335.771; 6623.584; 6559.961;  -12.670
336.367; 5524.533; 5394.394;  -21.124
336.964; 6309.008; 6137.810;  -18.226
337.561; 5734.243; 5655.582;  -13.311
338.157; 7483.601; 7429.612;  -19.006
338.754; 6383.899; 6305.286;  -19.418
339.350; 5657.069; 5531.421;  -29.433
339.946; 6049.058; 5908.979;  -16.622
340.543; 6844.895; 6726.633;  -16.744
341.139; 5697.128; 5622.079;  -21.841
341.735; 6305.779; 6137.947;  -25.012
342.332; 5482.550; 5311.191;  -19.156
342.928; 6454.160; 6365.379;  -20.443
343.524; 6246.206; 6140.857;  -14.397
344.120; 6011.678; 6034.729;  -20.654
344.716; 5669.516; 5567.636;   -5.730
345.313; 6561.419; 6491.590;  -10.929
345.909; 4874.306; 4700.448;  -19.843
346.505; 6019.679; 5954.910;  -19.645
347.101; 6761.807; 6646.147;   -9.618
347.697; 6416.358; 6396.497;  -10.305
348.293; 4842.804; 4852.084;  -23.189
348.889; 6049.302; 5965.240;  -18.418
349.485; 5437.303; 5374.457;  -10.476
350.081; 6321.134; 6229.540;  -17.320
350.676; 5559.961; 5471.969;  -21.088
351.272; 6651.966; 6672.840;  -12.821
351.868; 6269.085; 6170.107;  -13.165
352.464; 5790.405; 5717.784;  -12.464
353.059; 5128.951; 5013.372;  -22.547
353.655; 6391.324; 6246.942;   -9.379
354.251; 6162.823; 6029.314;   -8.266
354.846; 6043.806; 6051.520;  -17.705
355.442; 6073.867; 6058.985;   -9.317
356.038; 6077.134; 6001.648;  -11.049
356.633; 5868.544; 5753.728;  -10.006
357.229; 5832.137; 5792.494;  -13.120
357.824; 5681.208; 5618.256;  -15.647
358.420; 5395.717; 5342.335;  -19.204
359.015; 5517.418; 5433.553;  -12.263
359.610; 6267.871; 6199.748;  -16.421
360.206; 4693.533; 4613.949;  -20.074
360.801; 5076.846; 4989.573;  -13.277
361.396; 5900.757; 5775.979;   -5.822
361.992; 5354.208; 5307.256;  -11.247
362.587; 5416.348; 5357.827;  -21.502
363.182; 5570.138; 5457.229;   -7.461
363.777; 6073.739; 6069.447;   -8.719
364.372; 6020.387; 6050.361;  -14.590
364.967; 5543.333; 5475.840;  -15.145
365.563; 6731.617; 6697.708;   -7.192
366.158; 5510.122; 5421.507;   -5.662
366.753; 5157.435; 5143.757;   -8.378
367.348; 6127.244; 6005.246;  -14.990
367.942; 5625.958; 5506.497;   -6.005
368.537; 6164.528; 6153.150;  -11.504
369.132; 5752.060; 5757.342;  -10.576
369.727; 5074.944; 5037.765;  -12.573
370.322; 4655.846; 4595.091;  -11.560
370.917; 5854.061; 5842.969;  -10.388
371.511; 7353.484; 7311.299;   -9.161
372.106; 6568.733; 6524.840;  -10.245
372.701; 4726.425; 4616.606;  -10.158
373.296; 7258.891; 7212.424;   -4.719
373.890; 5298.848; 5243.827;  -11.802
374.485; 5779.970; 5755.458;  -13.500
375.079; 6191.514; 6165.272;   -6.276
375.674; 6876.802; 6819.348;   -0.447
376.268; 5690.927; 5693.824;   -6.916
376.863; 4774.473; 4784.930;  -14.483
377.457; 5501.731; 5440.104;   -6.903
378.052; 6474.344; 6456.656;   -9.844
378.646; 6323.907; 6323.666;  -12.601
379.240; 6114.892; 6030.570;  -14.715
379.835; 5339.894; 5223.005;  -12.331
380.429; 4583.688; 4499.880;   -9.074
381.023; 6684.976; 6686.475;   -1.729
381.617; 5753.508; 5705.293;  -13.714
382.212; 5758.400; 5704.022;   -7.060
382.806; 6498.631; 6396.104;   -2.303
383.400; 5760.895; 5801.524;   -0.815
383.994; 5701.779; 5653.428;   -4.429
384.588; 5983.244; 5945.137;   -6.261
385.182; 6270.071; 6274.639;    0.008
385.776; 6148.105; 6114.302;   -3.247
386.370; 5861.911; 5866.729;   -1.030
386.964; 5922.216; 5861.118;   -1.346
387.558; 5087.982; 5033.563;   -2.020
388.152; 5877.530; 5824.887;   -5.345
388.745; 7239.682; 7222.972;   -2.774
389.339; 6393.136; 6398.385;    3.510
389.933; 5869.277; 5911.655;    5.280
390.527; 7678.795; 7723.223;    2.610
391.120; 5139.049; 5074.455;   -7.914
391.714; 6153.688; 6149.989;   -1.903
392.308; 6917.352; 6811.480;    6.023
392.901; 5615.637; 5654.012;   -4.103
393.495; 5225.435; 5211.686;    3.284
394.089; 6890.881; 6843.864;    8.655
394.682; 6196.718; 6168.854;    2.312
395.275; 6407.696; 6403.851;   -7.402
395.869; 5951.252; 5942.626;   -1.072
396.462; 5414.024; 5435.979;    6.454
397.056; 6862.304; 6978.566;    8.494
397.649; 6590.856; 6572.689;    1.599
398.242; 6409.611; 6452.210;    3.153
398.836; 6867.763; 6924.404;   11.395
399.429; 5501.215; 5454.381;   14.695
400.022; 5934.901; 5910.649;    3.627
400.615; 7340.321; 7402.917;    8.383
401.208; 6094.709; 6070.474;   13.295
401.802; 6302.707; 6342.039;    6.211
402.395; 6160.301; 6126.649;    7.227
402.988; 6252.318; 6313.481;    2.700
403.581; 5633.365; 5668.250;   11.225
404.174; 6020.938; 6065.711;   18.922
404.767; 5593.897; 5544.959;   14.169
405.360; 5571.361; 5603.596;    8.999
405.953; 6813.373; 6861.483;   13.138
406.545; 6533.610; 6542.691;   13.937
407.138; 5476.045; 5510.982;   10.869
407.731; 5443.486; 5483.144;   12.768
408.324; 5849.119; 5857.034;   22.921
408.917; 6120.071; 6175.639;   15.308
409.509; 6719.741; 6749.184;   12.239
410.102; 5837.314; 5889.791;   13.741
410.695; 5941.607; 5923.110;   20.249
411.287; 5328.582; 5452.936;   21.793
411.880; 5187.796; 5246.813;   22.965
412.472; 5501.256; 5503.170;   15.082
413.065; 5735.949; 5735.526;   23.423
413.657; 5135.292; 5136.232;   21.077
414.250; 5769.153; 5801.180;   12.349
414.842; 6127.641; 6125.665;   20.423
415.434; 5124.392; 5145.124;   19.906
416.027; 5777.702; 5797.902;   26.574
416.619; 6428.735; 6455.239;   15.705
417.211; 5322.865; 5399.212;   17.791
417.804; 5576.251; 5649.034;   30.244
418.396; 5458.095; 5505.186;   24.177
418.988; 5923.867; 5929.539;   24.904
419.580; 5055.779; 5079.981;   20.692
420.172; 4838.725; 4804.532;   22.275
420.764; 5964.294; 6028.040;   26.773
421.356; 5782.841; 5735.846;   25.731
421.948; 6076.027; 6057.486;   24.876
422.540; 6038.678; 5988.426;   30.042
423.132; 5331.554; 5316.469;   32.728
423.724; 4944.226; 4990.750;   21.317
424.316; 5573.676; 5562.991;   29.359
424.908; 5269.344; 5306.763;   28.798
425.500; 5796.165; 5839.766;   30.512
426.092; 5771.856; 5813.795;   26.741
426.683; 6248.262; 6207.331;   27.029
427.275; 5702.694; 5706.112;   32.611
427.867; 5884.016; 5901.224;   33.796
428.458; 6596.752; 6570.214;   34.453
429.050; 6139.177; 6174.799;   34.255
429.642; 6665.749; 6702.152;   39.082
430.233; 4876.671; 4973.373;   41.138
430.825; 6557.741; 6574.290;   31.581
431.416; 6267.629; 6312.776;   35.755
432.008; 5743.406; 5785.518;   40.566
432.599; 5750.782; 5835.669;   46.322
433.190; 5631.284; 5673.924;   46.897
433.782; 4974.990; 5016.940;   41.069
434.373; 7901.805; 7932.891;   48.778
434.964; 5234.002; 5238.937;   50.078
435.556; 5596.089; 5643.313;   52.381
436.147; 6774.733; 6783.538;   38.251
436.738; 6204.306; 6216.626;   47.237
437.329; 6336.412; 6411.497;   61.304
437.920; 5770.148; 5909.043;   48.611
438.511; 4871.992; 4911.158;   44.910
439.103; 5402.920; 5442.359;   62.404
439.694; 5962.115; 6077.560;   63.075
440.285; 6533.114; 6606.342;   61.033
440.876; 7619.959; 7624.930;   57.249
441.466; 4911.434; 4938.128;   61.306
442.057; 5747.287; 5784.021;   65.773
442.648; 6595.277; 6629.352;   65.676
443.239; 5368.224; 5509.049;   55.963
443.830; 6175.083; 6119.850;   69.631
444.421; 5625.280; 5690.269;   69.943
445.011; 6032.755; 6044.240;   72.791
445.602; 6492.097; 6527.138;   68.848
446.193; 4022.548; 4025.969;   80.044
446.783; 5360.896; 5385.583;   82.599
447.374; 5921.941; 5929.362;   77.419
447.964; 6236.971; 6208.335;   72.605
448.555; 7130.006; 7223.662;   82.041
449.145; 5640.770; 5738.081;   76.230
449.736; 6985.205; 7014.854;   75.545
450.326; 6121.353; 6179.876;   67.945
450.917; 5738.534; 5723.790;   77.598
451.507; 5049.385; 5082.658;   68.027
452.097; 6425.417; 6490.368;   67.771
452.688; 6283.078; 6304.533;   62.884
453.278; 4521.764; 4527.655;   65.512
453.868; 6881.215; 6909.113;   71.796
454.458; 5487.782; 5508.596;   60.956
455.048; 6067.139; 6086.480;   62.356
455.639; 4632.942; 4670.133;   58.782
456.229; 5974.571; 6017.371;   65.209
456.819; 6323.856; 6310.384;   61.466
457.409; 6607.764; 6598.245;   59.967
457.999; 6162.979; 6187.713;   58.093
458.589; 5623.897; 5658.654;   59.536
459.179; 6011.142; 6018.506;   55.994
459.769; 5140.306; 5190.143;   43.624
460.358; 6710.001; 6708.826;   46.978
460.948; 5678.919; 5771.766;   49.821
461.538; 5384.098; 5352.872;   54.678
462.128; 5447.271; 5494.371;   49.309
462.717; 5796.103; 5833.634;   52.774
463.307; 5773.377; 5816.940;   48.101
463.897; 5313.187; 5357.948;   45.606
464.486; 7114.579; 7205.232;   45.010
465.076; 6027.137; 6073.297;   45.519
465.666; 5139.457; 5225.046;   50.058
466.255; 6536.963; 6590.100;   44.463
466.845; 5279.335; 5408.971;   41.206
467.434; 5897.477; 5963.350;   44.847
468.023; 5158.333; 5214.607;   46.760
468.613; 5797.097; 5777.654;   39.736
469.202; 5102.038; 5139.515;   46.461
469.791; 5854.987; 5905.020;   47.944
470.381; 5853.011; 5864.085;   47.529
470.970; 5621.832; 5605.980;   43.773
471.559; 5932.009; 5959.650;   41.646
472.148; 5198.482; 5252.221;   37.914
472.738; 6040.758; 6089.373;   48.071
473.327; 4847.215; 4874.257;   47.871
473.916; 5835.910; 5828.759;   37.716
474.505; 5912.581; 5974.484;   40.256
475.094; 6438.182; 6482.811;   43.269
475.683; 6255.795; 6371.471;   36.499
476.272; 5639.865; 5731.389;   44.542
476.861; 5379.071; 5407.887;   42.297
477.449; 5502.945; 5546.784;   46.878
478.038; 5167.386; 5151.392;   35.156
478.627; 5397.879; 5446.267;   42.514
479.216; 5844.958; 5893.335;   43.937
479.805; 5908.327; 5937.625;   51.393
480.393; 8091.983; 8145.920;   53.239
480.982; 6893.724; 6924.600;   38.955
481.571; 6611.987; 6654.682;   45.436
482.159; 5045.742; 5077.721;   51.007
482.748; 6193.854; 6295.164;   49.695
483.336; 6475.213; 6456.484;   48.280
483.925; 5478.806; 5467.250;   47.166
484.513; 5445.106; 5475.321;   55.404
485.102; 5913.672; 5977.104;   54.238
485.690; 7766.884; 7717.101;   55.748
486.278; 7482.763; 7496.097;   55.934
486.867; 5742.928; 5782.952;   57.106
487.455; 6535.203; 6500.668;   56.979
488.043; 5068.333; 5053.642;   57.564
488.631; 7437.546; 7444.375;   57.432
489.220; 6494.259; 6447.516;   63.646
489.808; 4828.198; 4790.870;   65.449
490.396; 6414.478; 6508.084;   61.977
490.984; 5437.214; 5490.074;   68.834
491.572; 6416.761; 6475.361;   70.775
492.160; 6051.232; 6070.642;   67.564
492.748; 5587.550; 5624.583;   66.808
493.336; 6502.418; 6545.354;   79.747
493.924; 5552.660; 5510.734;   88.688
494.512; 6401.347; 6351.001;   84.120
495.100; 6267.911; 6290.639;   86.250
495.687; 6637.593; 6684.661;  103.074
496.275; 5376.068; 5360.486;  108.717
496.863; 5572.230; 5635.797;  107.035
497.451; 5499.221; 5572.718;  117.993
498.038; 5810.297; 5881.833;  120.116
498.626; 5578.969; 5611.704;  143.059
499.214; 6013.362; 5977.097;  153.434
499.801; 5851.955; 5898.863;  175.121
500.389; 4751.611; 4766.602;  185.617
500.976; 6105.323; 6136.526;  215.789
501.564; 5886.906; 5944.840;  240.321
502.151; 4206.693; 4163.698;  267.007
502.738; 5513.340; 5479.358;  317.961
503.326; 5636.946; 5638.856;  361.216
503.913; 5903.452; 6019.282;  401.433
504.500; 6095.507; 6033.949;  446.492
505.088; 5143.110; 5161.012;  512.063
505.675; 5636.055; 5645.826;  586.387
506.262; 5572.215; 5691.702;  671.021
506.849; 5744.648; 5799.219;  759.062
507.436; 6533.363; 6604.688;  849.788
508.023; 5713.369; 5724.595;  944.288
508.610; 6371.439; 6444.249; 1020.690
509.197; 6145.831; 6140.315; 1089.052
509.784; 5752.272; 5717.176; 1133.776
510.371; 4752.167; 4775.968; 1165.501
510.958; 5898.028; 5882.843; 1251.735
511.545; 6816.287; 6857.054; 1350.248
512.132; 5732.042; 5698.793; 1525.945
512.719; 5106.952; 5104.282; 1834.933
513.305; 5276.292; 5310.962; 1965.349
513.892; 6706.138; 6702.550; 1963.265
514.479; 5907.059; 5832.516; 2046.446
515.066; 6493.201; 6464.414; 2252.803
515.652; 5842.167; 5881.377; 2567.247
516.239; 6270.490; 6313.117; 2636.919
516.825; 4891.158; 4921.298; 2482.304
517.412; 7283.035; 7283.559; 2427.031
517.998; 5623.916; 5628.919; 2540.463
518.585; 5541.594; 5531.698; 2609.007
519.171; 5884.860; 5920.734; 2842.088
519.758; 4938.644; 4972.529; 3090.703
520.344; 6393.572; 6431.176; 3176.076
520.930; 5104.050; 5097.474; 3295.037
521.516; 6109.118; 6125.727; 3500.959
522.103; 6745.606; 6779.321; 3736.704
522.689; 5568.869; 5566.632; 3971.022
523.275; 6544.294; 6608.807; 4213.778
523.861; 5646.597; 5668.242; 4190.361
524.447; 6499.033; 6462.714; 4070.602
525.033; 6610.113; 6618.856; 4088.892
525.619; 5284.114; 5328.593; 4416.851
526.205; 4942.576; 5023.866; 4836.835
526.791; 5573.046; 5627.483; 4885.903
527.377; 5340.396; 5337.652; 4544.907
527.963; 5906.146; 5968.302; 4321.995
528.549; 6036.957; 6039.599; 4473.979
529.135; 5235.362; 5226.988; 4788.663
529.721; 5837.037; 5866.922; 4888.577
530.306; 7946.157; 7995.599; 4775.779
530.892; 5497.731; 5557.906; 4793.906
531.478; 5423.830; 5415.170; 4956.948
532.063; 5144.636; 5180.705; 5136.936
532.649; 7186.812; 7262.157; 5336.867
533.235; 5198.218; 5212.764; 5748.092
533.820; 6655.050; 6608.546; 6456.875
534.406; 5665.360; 5666.180; 6590.167
534.991; 5250.118; 5289.655; 6179.622
535.576; 5699.958; 5694.926; 6098.691
536.162; 8009.317; 7974.028; 6441.234
536.747; 4910.750; 4940.101; 6816.224
537.333; 5246.590; 5302.154; 6889.752
537.918; 5724.871; 5755.368; 7154.280
538.503; 5332.784; 5371.101; 7150.848
539.088; 6005.807; 6099.467; 7253.308
539.673; 5503.322; 5513.345; 7625.180
540.259; 5326.270; 5372.741; 8226.793
540.844; 4662.313; 4634.856; 8745.092
541.429; 7049.499; 7120.016; 8762.553
542.014; 4849.328; 4949.771; 8871.497
542.599; 5997.851; 6063.583; 8886.008
543.184; 5005.323; 5041.082; 9079.139
543.769; 5318.990; 5326.045; 9076.182
544.354; 5534.284; 5529.138; 8354.081
544.938; 5965.664; 5998.352; 8236.809
545.523; 7002.551; 7062.691; 8222.179
546.108; 5723.592; 5738.999; 8114.082
546.693; 5668.360; 5653.590; 8535.912
547.278; 5724.177; 5769.494; 9238.322
547.862; 5691.077; 5704.975; 9034.405
548.447; 6442.192; 6339.890; 7795.011
549.031; 5523.798; 5521.425; 7485.099
549.616; 5926.059; 5912.444; 7626.308
550.201; 5352.670; 5297.260; 7627.909
550.785; 6210.959; 6214.963; 7859.125
551.370; 4991.264; 4994.762; 7990.654
551.954; 6405.325; 6431.926; 8196.468
552.538; 6229.048; 6355.256; 7959.495
553.123; 5342.119; 5310.801; 7964.826
553.707; 5552.948; 5611.185; 8515.957
554.291; 6720.253; 6768.055; 8724.024
554.876; 6345.495; 6346.844; 8524.211
555.460; 5368.380; 5443.484; 8704.456
556.044; 5332.735; 5278.934; 9141.473
556.628; 5764.981; 5740.702; 9250.197
557.212; 6599.453; 6627.428; 9444.237
557.796; 5598.860; 5621.699; 9379.783
558.380; 6062.759; 6056.000; 9353.658
558.964; 5875.778; 5879.121; 9210.310
559.548; 4899.944; 4817.085; 8475.153
560.132; 5495.377; 5477.422; 7954.084
560.716; 5058.614; 5065.040; 7489.529
561.300; 4985.536; 4919.223; 7211.952
561.884; 6218.608; 6281.613; 7141.313
562.467; 6134.448; 6136.076; 7155.386
563.051; 5756.454; 5819.092; 7323.158
563.635; 5654.579; 5635.267; 7709.114
564.219; 5677.972; 5793.623; 7678.855
564.802; 6173.853; 6082.983; 7376.187
565.386; 5823.872; 5788.142; 7054.372
565.969; 6758.014; 6725.002; 6589.196
566.553; 7423.559; 7384.373; 6279.371
567.136; 6661.668; 6652.970; 5967.930
567.720; 5856.842; 5855.687; 5660.703
568.303; 6070.990; 6024.082; 5648.615
568.887; 5903.673; 5900.250; 5618.443
569.470; 6065.311; 6009.495; 5411.875
570.053; 6339.654; 6312.610; 5149.274
570.637; 5356.738; 5194.587; 5122.798
571.220; 6423.842; 6360.649; 4957.369
571.803; 7475.629; 7391.436; 4933.018
572.386; 5730.392; 5532.818; 4840.973
572.969; 5710.691; 5597.191; 4592.886
573.552; 5875.602; 5723.006; 4348.387
574.135; 5286.843; 5165.314; 4002.290
574.718; 5525.340; 5343.841; 3654.773
575.301; 5539.595; 5304.195; 3502.288
575.884; 5553.851; 5264.548; 3349.803
576.467; 6873.742; 6533.687; 3191.403
577.050; 6364.375; 5972.505; 3062.418
577.633; 7587.912; 7248.194; 3214.200
578.216; 6031.626; 5558.591; 3284.889
578.799; 6083.630; 5724.172; 3189.777
579.381; 7975.491; 7434.709; 3064.502
579.964; 5861.048; 5321.185; 2888.357
580.547; 6592.738; 5915.515; 2905.760
581.129; 7590.248; 6835.004; 2966.849
581.712; 6922.222; 6015.829; 2887.292
582.294; 6738.336; 5849.670; 2771.631
582.877; 8541.437; 7448.779; 2711.602
583.459; 6866.956; 5788.865; 2577.049
584.042; 6888.841; 5660.878; 2454.707
584.624; 6586.825; 5359.783; 2305.893
585.206; 5819.263; 4502.581; 2189.546
585.789; 6881.441; 5443.987; 2112.577
586.371; 7588.496; 6153.545; 2153.065
586.953; 7907.081; 6358.040; 2197.806
587.536; 8422.826; 6688.591; 2105.489
588.118; 7398.350; 5611.886; 1963.911
588.700; 8748.660; 6837.664; 1843.179
589.282; 8292.715; 6205.185; 1813.834
589.864; 8144.957; 5914.974; 1777.620
590.446; 7079.226; 4743.410; 1733.780
591.028; 8503.812; 5847.532; 1676.008
591.610; 7665.702; 4786.935; 1631.649
592.192; 8949.058; 5910.192; 1632.362
592.774; 8197.552; 5196.694; 1569.507
593.356; 8492.133; 5367.054; 1524.539
593.937; 8803.800; 5418.089; 1569.720
594.519;10345.299; 6522.980; 1569.049
595.101; 8822.843; 4808.242; 1545.452
595.683; 9629.624; 5511.083; 1607.568
596.264;10104.584; 5733.994; 1615.506
596.846;10157.225; 5498.674; 1667.622
597.427;10082.687; 5333.876; 1670.469
598.009;10221.553; 5250.839; 1640.312
598.591;11273.176; 6341.651; 1541.022
599.172;10429.048; 5532.522; 1598.665
599.753;10140.884; 4953.922; 1619.068
600.335;12210.363; 6869.655; 1548.612
600.916;11471.188; 5819.093; 1607.510
601.498;11986.131; 6126.318; 1745.181
602.079;11945.147; 5848.932; 1801.011
602.660;11994.249; 5679.777; 1834.640
603.241;10789.724; 4596.565; 1787.351
603.823;11691.056; 5401.384; 1684.266
604.404;11344.152; 5057.730; 1654.241
604.985;12231.209; 5519.615; 1758.741
605.566;13848.363; 6349.618; 1697.679
606.147;13278.550; 5562.404; 1526.728
606.728;12902.844; 4921.279; 1484.086
607.309;13206.854; 5387.576; 1421.070
607.890;13393.318; 5481.176; 1369.867
608.471;13532.928; 5259.773; 1277.826
609.051;14563.862; 5983.847; 1180.416
609.632;14386.005; 5226.962; 1075.816
610.213;15123.264; 5714.655; 1053.313
610.794;15473.163; 5559.546;  979.442
611.374;16864.479; 6096.424;  917.414
611.955;16074.803; 4899.117;  819.987
612.536;17077.633; 5966.681;  752.627
613.116;16919.248; 5384.559;  690.799
613.697;16791.350; 5447.814;  674.974
614.277;16221.216; 5180.669;  663.846
614.858;16029.745; 5392.605;  665.898
615.438;16416.912; 5736.678;  660.712
616.019;17430.797; 6710.619;  632.732
616.599;15438.617; 4412.995;  551.759
617.179;17004.816; 5059.368;  512.871
617.760;20033.121; 7737.757;  473.655
618.340;18306.662; 5604.474;  440.004
618.920;19536.383; 7001.850;  429.731
619.500;18003.701; 5482.418;  441.361
620.080;17390.990; 5209.867;  425.202
620.660;17418.135; 5209.864;  408.164
621.241;18193.396; 5514.510;  387.161
621.821;19071.219; 5837.731;  378.017
622.401;19657.920; 6505.840;  379.188
622.980;18013.299; 4903.247;  350.019
623.560;18544.922; 5521.576;  336.446
624.140;18384.447; 5821.860;  336.473
624.720;18281.203; 6055.745;  334.974
625.300;17638.113; 5219.824;  325.717
625.880;18947.350; 5700.224;  308.519
626.459;20671.174; 5793.662;  307.117
627.039;20770.199; 4713.355;  290.890
627.619;23268.492; 7367.857;  286.635
628.198;21579.082; 6704.042;  282.535
628.778;21165.104; 6234.745;  285.474
629.357;20902.549; 4963.705;  284.103
629.937;22341.102; 5496.937;  292.178
630.516;23368.805; 7021.999;  290.749
631.096;22004.328; 5324.702;  285.489
631.675;23709.086; 6730.623;  287.022
632.254;21831.424; 5277.350;  286.038
632.834;22210.633; 5700.538;  276.451
633.413;23351.084; 6763.369;  279.447
633.992;22856.367; 6435.574;  264.508
634.571;22278.840; 6147.181;  271.010
635.151;21381.621; 5098.396;  277.338
635.730;22905.422; 5649.313;  289.305
636.309;24450.791; 6052.012;  285.306
636.888;24923.182; 6123.561;  254.051
637.467;22910.211; 4719.208;  230.324
638.046;24631.502; 6942.045;  253.349
638.625;24493.402; 6572.564;  246.866
639.204;25070.719; 5929.069;  240.825
639.782;25011.609; 5700.617;  261.970
640.361;24808.516; 6735.752;  277.780
640.940;22863.496; 5352.780;  270.101
641.519;23715.975; 5966.808;  248.622
642.097;24665.154; 6194.836;  239.843
642.676;25582.234; 5832.864;  244.264
643.255;26142.615; 5595.892;  234.985
643.833;26409.895; 6154.920;  244.406
644.412;26017.875; 5457.948;  244.927
644.990;26610.455; 5847.976;  249.948
645.569;28088.635; 6105.004;  249.569
646.147;29877.414; 6392.032;  243.290
646.726;27378.695; 5870.060;  249.511
647.304;25526.275; 5517.087;  228.032
647.882;25095.555; 4664.116;  214.552
648.461;26594.635; 6009.144;  214.973
649.039;26686.514; 6236.171;  223.394
649.617;26518.594; 6235.199;  261.415
650.195;26261.375; 5901.228;  298.736
650.773;25085.953; 5462.255;  309.557
651.352;24158.635; 4637.283;  297.978
651.930;23566.814; 4530.311;  289.399
652.508;25482.693; 6380.339;  285.620
653.086;25939.273; 6049.367;  272.241
653.663;26502.953; 5267.395;  265.062
654.241;26578.234; 4997.423;  286.083
654.819;26444.213; 5031.451;  286.404
655.397;26177.693; 5128.479;  291.825
655.975;25584.174; 5523.507;  299.145
656.553;26840.254; 6916.535;  288.866
657.130;26072.934; 5139.563;  304.087
657.708;27730.514; 5972.591;  302.908
658.286;27529.992; 5910.619;  294.629
658.863;27518.373; 5878.646;  293.350
659.441;28562.053; 5966.674;  318.671
660.018;27999.033; 5632.703;  333.692
660.596;27149.912; 4648.730;  335.013
661.173;27758.693; 5367.758;  371.534
661.750;27291.572; 5153.786;  365.155
662.328;27849.553; 6199.814;  349.976
662.905;26242.432; 5476.842;  332.997
663.482;25677.713; 5638.870;  321.717
664.060;25482.893; 5282.898;  314.438
664.637;27424.672; 6099.926;  306.259
665.214;27748.352; 5914.954;  314.580
665.791;27957.232; 5540.982;  334.501
666.368;27728.912; 5450.010;  329.222
666.945;27878.092; 6258.038;  342.143
667.522;26483.672; 5207.066;  370.964
668.099;26744.053; 5656.094;  396.885
668.676;27007.832; 5755.122;  391.706
669.253;28923.711; 6928.150;  369.627
669.830;28514.092; 6704.178;  360.348
670.407;27506.572; 5608.206;  344.769
670.984;26743.352; 5627.233;  322.890
671.560;26548.832; 6122.262;  316.910
672.137;26491.912; 5431.290;  322.531
672.714;27836.391; 6147.317;  318.552
673.290;28027.672; 5911.345;  324.473
673.867;27847.951; 5382.373;  340.594
674.443;27906.230; 4994.401;  319.515
675.020;29389.711; 5856.429;  286.336
675.596;28069.191; 5504.457;  247.557
676.173;27071.570; 4908.485;  227.778
676.749;26751.951; 4358.513;  224.399
677.326;27241.430; 4788.541;  230.520
677.902;27401.611; 5177.569;  241.841
678.478;27318.691; 4895.597;  239.762
679.054;30817.770; 8495.625;  248.583
679.631;28091.250; 5984.653;  237.503
680.207;29232.531; 7131.681;  245.924
680.783;26892.410; 4427.708;  224.845
681.359;27918.189; 5552.737;  209.666
681.935;28074.869; 5738.765;  191.687
682.511;27594.650; 5741.792;  210.008
683.087;28343.930; 6086.820;  213.329
683.663;27782.609; 5578.849;  216.850
684.239;27130.891; 4983.876;  229.471
684.815;29213.670; 6294.904;  248.792
685.390;29989.949; 7397.932;  231.813
685.966;27882.730; 5788.960;  221.234
686.542;26790.510; 5068.988;  214.255
687.118;28174.490; 5877.016;  212.276
687.693;28673.068; 6123.044;  233.096
688.269;27939.648; 5556.072;  246.917
688.844;27939.529; 5960.100;  236.938
689.420;27194.609; 5760.128;  242.059
689.995;28961.789; 7042.156;  245.480
690.571;28418.568; 6693.184;  244.701
691.146;27058.648; 5413.212;  251.922
691.722;27552.029; 5927.240;  284.743
692.297;26700.709; 5385.268;  320.664
692.872;27343.088; 5270.295;  313.885
693.448;27903.469; 5038.324;  290.106
694.023;27960.348; 5790.352;  304.327
694.598;27614.529; 5913.379;  319.648
695.173;27162.809; 5416.407;  323.169
695.748;25865.889; 4608.436;  376.389
696.323;26212.469; 5602.463;  397.610
696.898;27201.348; 6660.491;  430.231
697.473;26130.629; 4730.519;  454.952
698.048;27415.207; 5527.547;  478.973
698.623;27446.287; 4907.575;  477.094
699.198;27919.469; 5760.603;  496.915
699.773;26890.348; 5265.631;  490.236
700.348;26199.729; 5032.659;  519.957
700.922;27990.508; 5803.687;  575.678
701.497;27310.387; 5715.715;  621.399
702.072;27637.467; 6345.743;  664.420
702.646;27966.646; 6220.771;  690.541
703.221;27268.127; 5851.799;  748.862
703.795;25711.707; 5075.827;  774.282
704.370;23963.088; 4195.854;  799.803
704.944;24463.967; 5350.882;  875.824
705.519;24480.646; 5917.911;  902.945
706.093;24062.027; 5115.938;  889.266
706.668;25741.008; 5977.966;  903.487
707.242;26007.986; 6229.994;  881.708
707.816;25045.467; 5421.022;  892.329
708.390;25465.846; 5573.050;  970.250
708.965;25496.227; 5894.078;  984.671
709.539;24521.406; 5479.106; 1026.092
710.113;24625.387; 5717.134; 1067.913
710.687;25577.967; 6340.162; 1166.434
711.261;24541.945; 5046.190; 1190.854
711.835;24731.826; 5113.218; 1197.275
712.409;24803.906; 4673.246; 1308.096
712.983;24473.387; 4698.274; 1461.617
713.557;24298.967; 4738.302; 1611.838
714.131;24768.146; 5513.330; 1554.359
714.704;24197.625; 5052.357; 1520.780
715.278;24949.406; 5778.386; 1575.101
715.852;25693.586; 6195.414; 1689.822
716.425;26102.666; 7173.441; 1829.143
716.999;23614.846; 4602.469; 2008.664
717.573;25420.826; 6068.498; 2000.485
718.146;26875.105; 6993.525; 1914.506
718.720;26350.086; 5863.553; 1818.026
719.293;26451.766; 6102.581; 1734.147
719.867;25504.645; 5211.609; 1716.968
720.440;26907.125; 6702.637; 1918.589
721.013;25624.904; 5248.665; 1975.410
721.587;25895.885; 4707.693; 2073.331
722.160;27582.766; 6337.721; 2357.852
722.733;26823.346; 5699.749; 2657.073
723.306;27439.324; 5693.777; 2703.894
723.880;26523.305; 5874.805; 2549.415
724.453;27481.184; 6623.833; 2414.336
725.026;26539.664; 5414.861; 2298.557
725.599;26789.344; 5851.889; 2168.778
726.172;26308.424; 6048.917; 2106.099
726.745;25372.904; 5995.944; 2253.320
727.318;25636.084; 6349.973; 2404.740
727.891;25514.863; 5952.000; 2680.161
728.463;25971.244; 5874.028; 2838.882
729.036;25918.424; 5191.056; 2755.103
729.609;25781.404; 5164.084; 2731.824
730.182;26414.383; 6269.112; 2855.645
730.754;24233.963; 4264.140; 2946.866
731.327;25752.543; 6087.168; 2840.187
731.900;24670.424; 4722.196; 2647.608
732.472;26572.604; 5610.224; 2473.929
733.045;27529.883; 5415.252; 2445.750
733.617;25616.563; 4658.280; 2511.771
734.190;26264.844; 6048.308; 2581.592
734.762;26642.822; 5625.336; 2710.813
735.334;26332.402; 5705.364; 3005.733
735.907;26664.584; 5650.392; 3154.954
736.479;28063.463; 6477.420; 3171.675
737.051;27405.943; 6076.448; 3217.496
737.623;28353.223; 6125.476; 3246.217
738.195;28494.703; 5227.503; 2985.238
738.768;28509.082; 4413.532; 2727.559
739.340;29919.463; 5395.560; 2666.880
739.912;29713.742; 6154.587; 2769.601
740.484;28008.223; 6041.615; 2731.422
741.056;27824.902; 5406.643; 2963.043
741.628;27056.482; 5061.671; 3361.364
742.199;28694.861; 6600.699; 3641.185
742.771;27549.043; 4871.727; 3932.005
743.343;27700.422; 5107.755; 4319.926
743.915;29177.803; 5911.783; 4706.647
744.487;28535.082; 6027.811; 4874.968
745.058;28423.461; 6190.839; 4616.589
745.630;28390.742; 6120.867; 4253.410
746.201;28470.521; 5360.895; 4056.131
746.773;29915.402; 5970.923; 3772.952
747.344;29203.082; 5546.951; 3642.473
747.916;30090.561; 5867.979; 3752.294
748.487;30049.641; 6215.007; 4106.215
749.059;27472.521; 4925.035; 4457.835
749.630;27773.201; 5210.063; 4366.457
750.201;29145.082; 5596.090; 4600.078
750.773;29144.061; 5191.119; 4658.499
751.344;29130.941; 5646.146; 4609.319
751.915;29200.422; 5615.174; 4526.440
752.486;29185.801; 5290.202; 4536.061
753.057;30714.281; 5833.230; 4383.282
753.628;30133.961; 5134.258; 4296.503
754.199;29954.641; 5388.286; 4383.224
754.770;29798.121; 6050.314; 4653.545
755.341;29741.801; 6390.342; 4831.666
755.912;28453.980; 5515.370; 4831.387
756.483;29021.359; 6044.398; 4735.808
757.054;28500.240; 5429.426; 4685.029
757.625;28483.820; 4914.454; 4994.250
758.195;28036.900; 4772.482; 5051.471
758.766;29242.980; 5796.510; 5317.792
759.337;28672.061; 4685.538; 5646.512
759.907;29379.439; 4799.565; 5404.133
760.478;30662.721; 5292.594; 5090.954
761.048;32095.500; 6093.622; 4871.175
761.619;30802.279; 5987.649; 4589.396
762.189;29629.459; 5679.677; 4171.317
762.760;29826.840; 6186.706; 3872.538
763.330;29801.119; 6171.733; 3832.259
763.900;30335.100; 5877.761; 4150.180
764.471;29580.279; 5146.789; 4529.801
765.041;31591.260; 6472.817; 4715.922
765.611;31299.039; 6018.845; 4681.442
766.181;30425.020; 5600.873; 4717.063
766.751;29188.699; 5715.901; 4710.285
767.321;29413.279; 4850.929; 4450.305
767.891;31487.658; 5769.957; 4274.126
768.461;31545.738; 5538.985; 4215.047
769.031;30630.818; 5584.013; 4173.068
769.601;31677.398; 6515.041; 4174.689
770.171;30437.779; 4741.069; 4229.310
770.741;30914.258; 5430.097; 4352.031
771.311;31535.238; 5953.125; 4336.652
771.880;29958.318; 5107.152; 4300.873
772.450;29166.398; 5123.181; 4387.194
773.020;29149.979; 4730.208; 4220.415
773.589;29424.059; 5262.236; 4075.835
774.159;31087.838; 5286.264; 4105.756
774.729;30724.719; 5167.292; 4114.978
775.298;31037.697; 5219.320; 3693.298
775.867;30761.178; 5182.348; 3343.119
776.437;29817.357; 5672.376; 3062.040
777.006;28783.338; 4710.404; 2927.161
777.576;30976.818; 6039.432; 3046.482
778.145;32077.598; 5923.460; 3230.203
778.714;30875.578; 5528.488; 3253.324
779.283;30438.457; 5999.516; 3129.745
779.853;30198.037; 5550.544; 2983.566
780.422;29938.217; 5521.572; 2929.887
780.991;30303.598; 5881.600; 2863.908
781.560;31559.877; 6633.627; 2948.029
782.129;30928.857; 5883.656; 3074.149
782.698;30455.736; 6520.684; 2893.970
783.267;28682.916; 5196.711; 2721.391
783.836;29101.697; 5872.739; 2659.712
784.404;29522.576; 4896.768; 2622.233
784.973;29764.357; 4159.795; 2600.754
785.542;30070.938; 5541.823; 2528.475
786.111;31490.516; 6351.851; 2404.396
786.679;30894.396; 6007.879; 2365.717
787.248;28562.477; 4763.907; 2498.438
787.817;29659.557; 5303.935; 2645.659
788.385;30995.836; 6374.963; 2709.280
788.954;28158.516; 4857.991; 2620.500
789.522;28949.695; 6116.019; 2625.422
790.090;28423.676; 4816.047; 2743.843
790.659;30313.656; 5358.075; 2635.163
791.227;30377.637; 5509.103; 2495.484
791.795;30731.215; 5819.131; 2413.705
792.364;29824.996; 5044.159; 2345.326
792.932;29474.375; 5996.187; 2350.447
793.500;28006.855; 5421.214; 2429.768
794.068;28106.135; 4762.243; 2513.589
794.636;29447.115; 5129.271; 2664.310
795.204;28009.596; 4580.298; 2721.431
795.772;27847.275; 5100.326; 2802.052
796.340;28291.055; 5282.354; 2847.173
796.908;27278.234; 4563.382; 2997.194
797.476;28875.215; 4974.410; 3151.615
798.044;28920.795; 4456.438; 3110.735
798.612;29101.475; 5530.466; 2931.656
799.180;28453.754; 5639.494; 2785.777
799.747;27771.234; 5565.522; 2899.098
800.315;27184.514; 4923.550; 2955.519
800.883;26799.094; 4500.578; 2948.940
801.450;27682.674; 5537.606; 2965.361
802.018;28009.955; 5867.634; 3070.582
802.585;27144.834; 5644.662; 3156.103
803.153;25834.914; 5139.690; 3199.524
803.720;26111.094; 5170.718; 3168.845
804.287;26133.674; 5380.746; 3248.366
804.855;26682.654; 6321.773; 3406.187
805.422;26435.434; 5458.802; 3430.907
805.989;26204.914; 5009.830; 3453.528
806.556;26155.193; 5021.857; 3612.649
807.124;28949.574; 6214.885; 3736.570
807.691;28084.754; 4934.913; 3770.491
808.258;28067.934; 5577.941; 3705.012
808.825;27183.713; 6156.969; 3828.733
809.392;27299.193; 6660.997; 3986.754
809.959;27650.473; 5870.025; 4410.075
810.526;28105.053; 6678.053; 4774.996
811.093;27370.732; 6331.081; 4754.217
811.659;25755.213; 5531.109; 4661.238
812.226;25932.492; 5491.137; 4672.559
812.793;26952.473; 5759.165; 4822.979
813.360;26401.752; 5529.193; 5189.800
813.926;27365.232; 5868.221; 5310.622
814.493;26293.412; 4764.249; 5414.542
815.060;25745.893; 4516.277; 5548.963
815.626;26906.572; 4878.305; 5452.284
816.193;28485.453; 5715.333; 5339.305
816.759;27058.932; 5068.360; 5544.426
817.325;25532.213; 4486.389; 5706.547
817.892;27024.191; 6140.417; 5623.468
818.458;27342.271; 5899.444; 5586.689
819.024;27931.951; 6416.472; 5647.910
819.591;27375.531; 5628.500; 5762.031
820.157;26397.813; 4825.528; 6284.452
820.723;26674.291; 5904.556; 6906.973
821.289;28411.672; 8526.584; 7086.894
821.855;25894.352; 6078.612; 7054.915
822.421;25946.631; 5236.640; 7112.035
822.987;24608.211; 4891.668; 7256.156
823.553;24732.391; 5402.696; 7538.077
824.119;25935.771; 6121.724; 7594.298
824.685;26113.252; 6437.752; 7613.619
825.251;24242.332; 6140.780; 7644.140
825.816;25189.111; 6810.808; 7720.261
826.382;24517.291; 6051.835; 8014.282
826.948;24848.871; 6131.864; 8281.503
827.513;23464.252; 5517.892; 8289.624
828.079;23161.031; 4962.919; 8587.045
828.645;23232.311; 5791.947; 8821.865
829.210;22581.891; 4944.976; 9054.486
829.776;23388.871; 5965.003; 9054.607
830.341;22582.750; 6112.031; 9415.628
830.906;23052.531; 6304.059; 9932.449
831.472;21067.111; 5191.087;10150.271
832.037;22416.891; 6249.115; 9420.391
832.602;20612.070; 5259.143; 8664.912
833.167;20235.451; 5773.171; 8491.933
833.733;20782.631; 6187.199; 8872.854
834.298;19493.010; 4952.227; 9370.575
834.863;20071.189; 5789.255; 9610.695
835.428;20248.369; 5814.283; 9655.616
835.993;20475.250; 5997.311; 9437.838
836.558;20516.730; 6102.339; 9441.459
837.123;21860.811; 7443.367; 9600.979
837.688;20023.090; 5851.395; 9798.301
838.253;19363.070; 5924.422; 9902.921
838.817;18942.949; 5479.451;10339.742
839.382;20270.430; 6624.479;10548.363
839.947;19160.609; 5688.506;10252.484
840.511;19848.789; 6782.534;10040.005
841.076;17845.869; 4509.563;10099.926
841.641;18758.850; 6094.590;10347.347
842.205;18504.629; 5963.618;10817.368
842.770;19260.010; 6893.646;11435.289
843.334;17712.389; 5488.674;12072.409
843.898;17720.168; 5343.702;12635.431
844.463;19131.850; 6616.730;12537.252
845.027;17738.428; 5346.758;12759.673
845.591;17952.209; 6343.786;12821.993
846.156;16837.588; 5323.814;12520.914
846.720;17524.969; 6234.842;12390.436
847.284;17290.949; 5813.870;12956.456
847.848;16837.129; 6032.897;13240.177
848.412;16238.208; 5724.926;13216.998
848.976;16890.889; 6794.954;13014.619
849.540;17285.168; 7300.981;12355.740
850.104;16337.148; 6636.009;12208.761
850.668;14327.428; 4616.038;12106.882
851.232;14924.008; 4750.065;11862.103
851.796;15844.588; 5667.093;11700.523
852.359;16776.168; 6274.121;12375.944
852.923;16221.647; 6409.149;13087.966
853.487;15526.827; 6105.177;13297.187
854.050;13146.207; 3908.205;13851.207
854.614;14554.987; 5469.233;14854.229
855.177;15159.468; 5886.261;15802.149
855.741;15136.047; 6060.289;16603.570
856.304;15623.228; 6370.317;16359.891
856.868;13593.707; 5105.345;14365.512
857.431;14082.487; 5712.373;13361.333
857.995;13466.867; 5462.401;14130.554
858.558;14025.747; 5915.429;14883.175
859.121;14342.327; 6254.457;15754.195
859.684;13899.906; 5904.484;15995.017
860.247;13717.687; 5695.513;15149.537
860.810;13288.566; 5400.541;14640.358
861.374;15198.446; 7459.568;15551.079
861.937;12911.326; 4998.596;16519.801
862.500;13229.807; 5339.625;16796.521
863.062;13077.986; 5105.652;16538.742
863.625;13691.666; 5921.680;16716.764
864.188;13440.646; 5397.708;17055.084
864.751;12839.926; 5356.736;17197.705
865.314;12314.206; 5761.764;17151.625
865.876;12884.986; 6364.792;17783.547
866.439;13010.565; 6196.820;19283.467
867.002;14216.846; 7174.848;20256.389
867.564;13412.525; 6441.876;20485.410
868.127;12379.905; 5718.904;20789.730
868.689;12444.686; 5961.932;21981.951
869.252;12872.466; 6425.960;23803.771
869.814;11475.245; 5230.988;24974.094
870.377;12547.825; 5923.016;24690.314
870.939;15038.605; 8317.044;23963.436
871.501;12826.785; 5897.071;25167.156
872.063;10962.165; 4221.100;26995.477
872.626;11168.845; 4647.127;27443.098
873.188;12315.925; 5921.155;26718.418
873.750;12050.005; 5674.183;26558.840
874.312;11561.085; 5388.211;26701.561
874.874;12969.864; 6898.239;27970.582
875.436;12140.944; 6221.267;29173.402
875.998;12447.324; 6734.295;30376.623
876.560;12033.404; 6397.323;32507.344
877.122;10679.685; 5260.351;34833.066
877.683;11591.265; 6151.379;36458.285
878.245;10746.044; 5376.407;37248.207
878.807;11368.924; 6031.435;36758.027
879.369;10004.704; 4942.463;35223.551
879.930; 9935.184; 5136.491;33824.969
880.492;11337.563; 6573.519;34436.492
881.053; 9890.244; 5102.547;37745.313
881.615; 9988.523; 5391.575;41184.633
882.176; 9988.304; 5567.603;42871.555
882.738;10549.884; 6274.630;41693.074
883.299; 8831.063; 4460.659;40289.895
883.860; 9099.844; 4709.687;39231.215
884.422;10300.823; 6181.714;38264.039
884.983; 9021.503; 5033.742;37171.859
885.544; 9781.184; 5855.770;35842.379
886.105; 9687.264; 5720.798;34810.000
886.666; 9194.243; 5336.826;34519.020
887.227; 8279.523; 4744.854;33905.641
887.788; 9378.503; 5936.882;34502.965
888.349; 8317.583; 4873.910;34241.785
888.910; 9505.663; 6124.938;33722.203
889.471; 8927.843; 5846.966;32539.625
890.032; 8585.623; 5702.994;31528.346
890.593; 9064.902; 6083.022;32655.068
891.153; 8584.282; 5645.050;33882.289
891.714; 7586.063; 4819.078;33318.711
892.275; 7490.542; 5036.105;31848.930
892.835; 8748.022; 6330.134;30339.752
893.396; 8623.502; 6260.162;30074.973
893.956; 7912.282; 5605.189;30338.393
894.517; 8111.062; 5858.217;30864.113
895.077; 8134.142; 5932.246;29766.734
895.638; 9060.822; 6897.273;26379.557
896.198; 6968.202; 5026.301;24056.277
896.758; 8158.382; 6261.329;22961.898
897.319; 7449.662; 5611.357;21772.020
897.879; 7433.342; 5714.385;20877.539
898.439; 6404.222; 4747.413;19509.461
898.999; 7702.102; 6119.441;17297.582
899.559; 7534.682; 6037.469;14712.002
900.119; 6552.562; 5084.497;12790.224
900.679; 8195.841; 6747.525;11586.744
901.239; 7486.021; 6168.553;10776.465
901.799; 7051.601; 5786.581; 9691.687
902.359; 6361.881; 5185.609; 8725.907
902.919; 6229.261; 5054.637; 8305.728
903.479; 6244.241; 5046.665; 8172.649
904.038; 5984.621; 4968.692; 7913.870
904.598; 5329.601; 4259.721; 7262.291
905.158; 6401.681; 5435.749; 6609.012
905.717; 6649.361; 5623.776; 6236.133
906.277; 6676.241; 5717.804; 5829.054
906.836; 7007.720; 6056.833; 5396.674
907.396; 6833.101; 6052.860; 4964.195
907.955; 6903.380; 5980.888; 4528.917
908.515; 6295.360; 5444.916; 4223.837
909.074; 6377.440; 5481.944; 4023.958
909.633; 6372.420; 5518.972; 4065.379
910.192; 7761.900; 6941.000; 4066.300
910.752; 6327.800; 5503.000; 3971.600
911.311; 6190.600; 5417.000; 3839.600
911.870; 5998.100; 5136.000; 3684.500
912.429; 7232.300; 6432.000; 3635.600
912.988; 7071.300; 6289.000; 3689.800
913.547; 5884.300; 5102.000; 3737.700
914.106; 6542.600; 5755.000; 3740.300
914.665; 6516.000; 5731.000; 3604.600
915.224; 7153.200; 6407.000; 3358.700
915.782; 6100.200; 5305.000; 3188.400
916.341; 7340.700; 6542.000; 3091.400
916.900; 6131.500; 5490.000; 3044.800
917.458; 5872.600; 5238.000; 2888.600
918.017; 6456.100; 5768.000; 2818.900
918.576; 6155.400; 5455.000; 2838.600
919.134; 5499.000; 4788.000; 2880.100
919.693; 6132.100; 5332.000; 2996.300
920.251; 5998.500; 5290.000; 3183.100
920.809; 5678.800; 4913.000; 3247.000
921.368; 5992.100; 5358.000; 3156.600
921.926; 5793.400; 5063.000; 2964.900
922.484; 6382.700; 5701.000; 2846.300
923.042; 6162.700; 5468.000; 2890.400
923.601; 7316.100; 6575.000; 2987.700
924.159; 6722.300; 6004.000; 3049.800
924.717; 5772.400; 5018.000; 3087.000
925.275; 6435.600; 5673.000; 3093.400
925.833; 5270.500; 4503.000; 3182.400
926.391; 6704.800; 5982.000; 3397.900
926.949; 6065.000; 5315.000; 3575.400
927.506; 6449.000; 5692.000; 3713.400
928.064; 6155.100; 5391.000; 3871.300
928.622; 6273.400; 5544.000; 4092.800
929.180; 5621.200; 4740.000; 4499.300
929.737; 5485.700; 4678.000; 4813.200
930.295; 6718.900; 5971.000; 5084.100
930.853; 5893.200; 5176.000; 5185.000
931.410; 5646.100; 4811.000; 5313.100
931.968; 6867.300; 5977.000; 5339.600
932.525; 6426.600; 5604.000; 5399.900
933.082; 5566.700; 4724.000; 5457.500
933.640; 6676.700; 5779.000; 5692.900
934.197; 6222.800; 5288.000; 5821.200
934.754; 6244.800; 5389.000; 5617.900
935.312; 5951.500; 5035.000; 5512.400
935.869; 7393.800; 6473.000; 5582.400
936.426; 5966.300; 5084.000; 5650.100
936.983; 6155.000; 5351.000; 5657.400
937.540; 5631.800; 4795.000; 5564.300
938.097; 6685.700; 5766.000; 5574.000
938.654; 6137.900; 5205.000; 5665.900
939.211; 6680.100; 5747.000; 5931.600
939.768; 6399.200; 5454.000; 6153.600
940.324; 6230.600; 5260.000; 6397.600
940.881; 5987.900; 5026.000; 6454.200
941.438; 7285.500; 6321.000; 6206.900
941.995; 7056.900; 6088.000; 6003.900
942.551; 5822.800; 4826.000; 6228.300
943.108; 6356.500; 5493.000; 6603.500
943.664; 5771.300; 4808.000; 7188.100
944.221; 7841.300; 6963.000; 7579.900
944.777; 5652.500; 4769.000; 7658.100
945.334; 5762.700; 4926.000; 7670.400
945.890; 6323.500; 5499.000; 7525.100
946.446; 6353.900; 5661.000; 7261.500
947.003; 6577.200; 5720.000; 6949.200
947.559; 7447.100; 6597.000; 6773.100
948.115; 7115.100; 6184.000; 6668.400
948.671; 6562.400; 5716.000; 6488.400
949.227; 5498.200; 4637.000; 6236.600
949.783; 5389.700; 4555.000; 6008.900
950.339; 6637.300; 5763.000; 5934.100
950.895; 6999.600; 6155.000; 5933.500
951.451; 6086.800; 5281.000; 6074.700
952.007; 6778.400; 5873.000; 6066.400
952.563; 6106.400; 5328.000; 5884.100
953.118; 5912.100; 5100.000; 5733.800
953.674; 6296.800; 5522.000; 5734.300
954.230; 6319.400; 5449.000; 6039.700
954.785; 6246.800; 5377.000; 6383.500
955.341; 6885.500; 5957.000; 6568.200
955.897; 5394.100; 4541.000; 6488.600
956.452; 6521.800; 5608.000; 6239.200
957.008; 7916.700; 7065.000; 5954.600
957.563; 7121.700; 6359.000; 5816.700
958.118; 5821.100; 5037.000; 5828.200
958.674; 6404.500; 5597.000; 5717.400
959.229; 7198.000; 6411.000; 5506.800
959.784; 5473.500; 4679.000; 5292.200
960.339; 7173.900; 6396.000; 5101.900
960.894; 6817.700; 5933.000; 5093.200
961.449; 5750.200; 4985.000; 5227.900
962.004; 9207.500; 8506.000; 5349.300
962.559; 5842.600; 5074.000; 5514.900
963.114; 4701.100; 3947.000; 5717.300
963.669; 6272.000; 5523.000; 5841.400
964.224; 5965.800; 5243.000; 5805.900
964.779; 5555.100; 4846.000; 5723.400
965.334; 7156.400; 6456.000; 5779.500
965.888; 5914.500; 5158.000; 5948.500
966.443; 6866.100; 6152.000; 6344.200
966.998; 5332.600; 4528.000; 6666.300
967.552; 6180.000; 5558.000; 6710.100
968.107; 5851.400; 5157.000; 6593.500
968.661; 6426.300; 5652.000; 6344.100
969.216; 5770.700; 5033.000; 6062.400
969.770; 6408.900; 5711.000; 5785.500
970.324; 6425.000; 5736.000; 5426.800
970.879; 6722.500; 6085.000; 5016.800
971.433; 6811.600; 6137.000; 4904.500
971.987; 6290.900; 5551.000; 4991.000
972.541; 6498.300; 5804.000; 4978.500
973.095; 7378.000; 6695.000; 4832.000
973.649; 5422.000; 4743.000; 4767.900
974.203; 5614.100; 4999.000; 4881.200
974.757; 5858.600; 5146.000; 4969.500
975.311; 6076.600; 5507.000; 4953.000
975.865; 6162.200; 5512.000; 4884.300
976.419; 5935.100; 5308.000; 4739.800
976.973; 5885.500; 5164.000; 4698.100
977.526; 6866.700; 6270.000; 4631.100
978.080; 5393.400; 4752.000; 4621.600
978.634; 6541.300; 5983.000; 4650.200
979.187; 6454.500; 5837.000; 4669.200
979.741; 7574.800; 6893.000; 4658.000
980.294; 5399.800; 4800.000; 4579.100
980.848; 4738.800; 4141.000; 4452.800
981.401; 5716.000; 5098.000; 4271.900
981.955; 6068.400; 5559.000; 4087.800
982.508; 5095.600; 4589.000; 3973.900
983.061; 6808.300; 6233.000; 3928.600
983.615; 5582.400; 5011.000; 3851.200
984.168; 5345.400; 4774.000; 3734.800
984.721; 6399.500; 5824.000; 3628.300
985.274; 6267.500; 5695.000; 3564.300
985.827; 6017.400; 5545.000; 3558.100
986.380; 4889.300; 4362.000; 3559.900
986.933; 6295.500; 5820.000; 3688.700
987.486; 6301.700; 5769.000; 3778.500
988.039; 6239.800; 5766.000; 3559.900
988.591; 6665.200; 6199.000; 3219.300
989.144; 5173.200; 4702.000; 2902.900
989.697; 5467.200; 4951.000; 2722.600
990.250; 6441.200; 5977.000; 2618.000
990.802; 5472.300; 4954.000; 2523.900
991.355; 7691.300; 7290.000; 2436.500
991.907; 6641.150; 6210.000; 2412.200
992.460; 5591.000; 5130.000; 2387.900
993.012; 5565.400; 5177.000; 2365.800
993.565; 5216.100; 4838.000; 2311.100
994.117; 7472.300; 7118.000; 2308.700
994.669; 5184.300; 4789.000; 2249.300
995.221; 6137.000; 5730.000; 2158.100
995.774; 6016.500; 5661.000; 2085.600
996.326; 5598.300; 5310.000; 2068.100
996.878; 6657.500; 6288.000; 1975.300
997.430; 5318.200; 5001.000; 1929.500
997.982; 5850.900; 5514.000; 1861.900
998.534; 5749.900; 5395.000; 1830.200
999.086; 5740.500; 5486.000; 1823.200
999.638; 4962.200; 4617.000; 1815.000
1000.190; 5474.400; 5201.000; 1796.600
1000.741; 5839.000; 5618.000; 1738.800
1001.293; 5298.600; 4958.000; 1666.200
1001.845; 5294.900; 4936.000; 1566.500
1002.396; 5906.100; 5683.000; 1471.900
1002.948; 5854.000; 5585.000; 1398.000
1003.500; 5738.200; 5384.000; 1356.500
1004.051; 7656.000; 7408.000; 1294.200
1004.603; 6537.000; 6321.000; 1190.000
1005.154; 4801.400; 4622.000; 1063.900
1005.705; 5941.700; 5715.000;  968.300
1006.257; 5794.200; 5621.000;  889.800
1006.808; 5612.800; 5409.000;  801.500
1007.359; 6433.000; 6277.000;  716.400
1007.910; 5305.300; 5166.000;  639.100
1008.461; 6171.300; 6046.000;  561.600
1009.013; 4750.000; 4631.000;  500.400
1009.564; 6769.600; 6641.000;  476.100
1010.115; 4842.900; 4749.000;  431.600
1010.665; 4960.900; 4862.000;  409.300
1011.216; 5597.800; 5486.000;  399.700
1011.767; 5841.400; 5682.000;  388.100
1012.318; 6120.400; 5979.000;  381.400
1012.869; 5614.000; 5469.000;  375.400
1013.419; 4914.900; 4882.000;  357.600
1013.970; 5608.800; 5508.000;  358.300
1014.521; 5076.200; 4920.000;  344.100
1015.071; 5671.500; 5526.000;  322.800
1015.622; 5271.800; 5173.000;  320.600
1016.172; 4918.000; 4798.000;  301.700
1016.723; 5082.500; 4985.000;  289.800
1017.273; 5009.500; 4919.000;  287.600
1017.823; 5445.400; 5266.000;  278.700
1018.374; 5096.700; 5017.000;  274.400
1018.924; 6097.900; 6026.000;  283.200
1019.474; 6003.800; 5935.000;  278.500
1020.024; 5477.000; 5446.000;  274.700
1020.574; 6199.200; 6046.000;  272.700
1021.124; 5738.100; 5659.000;  278.400
1021.674; 4630.400; 4550.000;  269.200
1022.224; 6081.500; 6058.000;  267.800
1022.774; 5605.600; 5508.000;  258.100
1023.324; 6527.500; 6390.000;  260.000
1023.874; 7705.600; 7690.000;  260.700
1024.423; 5132.000; 5024.000;  252.700
1024.973; 5027.900; 4838.000;  234.700
1025.523; 5198.800; 5137.000;  226.500
1026.072; 5111.700; 5038.000;  225.500
1026.622; 5748.500; 5608.000;  210.100
1027.172; 6130.700; 6037.000;  213.000
1027.721; 5020.100; 4936.000;  207.700
1028.270; 5708.900; 5591.000;  205.400
1028.820; 5452.700; 5374.000;  201.000
1029.369; 5187.800; 5199.000;  201.000
1029.918; 5476.700; 5341.000;  198.400
1030.468; 4733.300; 4593.000;  199.200
1031.017; 5414.100; 5332.000;  192.600
1031.566; 5154.900; 5112.000;  197.400
1032.115; 5967.800; 5870.000;  188.300
1032.664; 5064.800; 4961.000;  193.700
1033.213; 6359.800; 6321.000;  191.900
1033.762; 5412.300; 5365.000;  184.500
1034.311; 5799.400; 5729.000;  194.300
1034.860; 5927.400; 5882.000;  192.300
1035.408; 6294.800; 6205.000;  182.600
1035.957; 6195.000; 6129.000;  173.900
1036.506; 4382.900; 4341.000;  185.200
1037.055; 7403.500; 7433.000;  182.500
1037.603; 5713.100; 5562.000;  167.600
1038.152; 4424.400; 4363.000;  168.200
1038.700; 4941.700; 4879.000;  169.600
1039.249; 5860.200; 5805.000;  164.300
1039.797; 5448.500; 5351.000;  169.600
1040.345; 6080.300; 6042.000;  167.100
1040.894; 5376.300; 5358.000;  164.400
1041.442; 5469.400; 5318.000;  158.300
1041.990; 4770.900; 4711.000;  160.000
1042.538; 4531.700; 4442.000;  156.800
1043.087; 4770.600; 4622.000;  146.600
1043.635; 5865.700; 5900.000;  162.400
1044.183; 5046.200; 4946.000;  156.300
1044.731; 4895.800; 4900.000;  158.100
1045.279; 5856.800; 5836.000;  154.500
1045.827; 7961.600; 7934.000;  146.200
1046.374; 4310.900; 4281.000;  154.000
1046.922; 5025.900; 5002.000;  149.000
1047.470; 6017.200; 5941.000;  154.900
1048.018; 5688.300; 5569.000;  148.400
1048.565; 6264.000; 6230.000;  146.300
1049.113; 4710.400; 4693.000;  156.100
1049.660; 5398.000; 5334.000;  154.300
1050.208; 5853.600; 5811.000;  149.400
1050.755; 5233.900; 5115.000;  157.500
1051.303; 6020.800; 5906.000;  157.700
1051.850; 5479.000; 5349.000;  152.800
1052.397; 3949.500; 3904.000;  146.300
1052.945; 5359.600; 5306.000;  149.500
1053.492; 6530.000; 6448.000;  149.300
1054.039; 6318.300; 6276.000;  163.100
1054.586; 4783.900; 4669.000;  150.400
1055.133; 6091.700; 6065.000;  153.500
1055.680; 5612.100; 5558.000;  155.600
1056.227; 4615.000; 4517.000;  148.700
1056.774; 7049.100; 7027.000;  151.500
1057.321; 4453.600; 4417.000;  143.700
1057.868; 5650.300; 5537.000;  145.300
1058.415; 5691.200; 5620.000;  153.500
1058.961; 5916.800; 5887.000;  149.900
1059.508; 5597.100; 5514.000;  147.300
1060.055; 5035.500; 4957.000;  151.000
1060.601; 5355.800; 5313.000;  148.700
1061.148; 5476.100; 5405.000;  153.800
1061.694; 5134.800; 5146.000;  150.500
1062.241; 5143.300; 5032.000;  149.100
1062.787; 5829.400; 5747.000;  153.000
1063.334; 7119.900; 7001.000;  153.200
1063.880; 5913.300; 5827.000;  148.400
1064.426; 6223.700; 6202.000;  149.200
1064.972; 5193.500; 5161.000;  156.400
1065.518; 4909.300; 4912.000;  144.700
1066.065; 5527.300; 5581.000;  139.400
1066.611; 5251.600; 5178.000;  139.300
1067.157; 5630.200; 5532.000;  138.400
1067.703; 5887.500; 5887.000;  142.700
1068.249; 5175.200; 5113.000;  136.700
1068.794; 5494.300; 5423.000;  139.400
1069.340; 4998.400; 5006.000;  142.700
1069.886; 5196.800; 5117.000;  135.600
1070.432; 4633.400; 4606.000;  133.400
1070.977; 5264.700; 5135.000;  138.200
1071.523; 4887.300; 4894.000;  132.400
1072.068; 5007.400; 4936.000;  132.700
1072.614; 4499.300; 4503.000;  127.000
1073.160; 6123.500; 6090.000;  131.300
1073.705; 5023.000; 5030.000;  135.700
1074.250; 4856.800; 4904.000;  133.000
1074.796; 5782.400; 5771.000;  138.000
1075.341; 5833.400; 5822.000;  137.300
1075.886; 5118.700; 4986.000;  134.300
1076.431; 5798.400; 5812.000;  138.200
1076.976; 5662.100; 5633.000;  132.200
1077.521; 5059.100; 5046.000;  138.900
1078.067; 5074.700; 5050.000;  128.600
1078.612; 5885.400; 5886.000;  138.900
1079.156; 5271.400; 5189.000;  128.900
1079.701; 6153.900; 6155.000;  129.700
1080.246; 6202.300; 6178.000;  128.600
1080.791; 5581.400; 5562.000;  122.600
1081.336; 5796.400; 5852.000;  122.000
1081.880; 5758.100; 5717.000;  123.900
1082.425; 4992.200; 4948.000;  120.600
1082.970; 6375.600; 6384.000;  124.500
1083.514; 5245.000; 5162.000;  112.000
1084.059; 5159.500; 5063.000;  120.700
1084.603; 4972.100; 4893.000;  116.000
1085.147; 5747.500; 5713.000;  116.300
1085.692; 6438.700; 6383.000;  108.200
1086.236; 4398.200; 4346.000;  114.600
1086.780; 6749.800; 6644.000;  118.900
1087.325; 5792.300; 5849.000;  120.400
1087.869; 5438.000; 5459.000;  110.500
1088.413; 6278.100; 6238.000;  114.000
1088.957; 4707.800; 4614.000;  114.300
1089.501; 6899.500; 6857.000;  114.600
1090.045; 6516.400; 6559.000;  114.200
1090.589; 5026.000; 4966.000;  105.500
1091.133; 5964.200; 5902.000;  111.800
1091.676; 5158.500; 5140.000;  110.900
1092.220; 5341.000; 5377.000;  110.100
1092.764; 6303.100; 6290.000;  108.100
1093.307; 5984.000; 5998.000;  109.900
1093.851; 4892.300; 4870.000;  107.500
1094.395; 6138.900; 6119.000;   96.200
1094.938; 5621.700; 5617.000;   99.300
1095.482; 4926.600; 4918.000;   97.700
1096.025; 6383.600; 6310.000;   84.900
1096.568; 6960.000; 6932.000;   88.500
1097.112; 4358.000; 4354.000;   95.700
1097.655; 5262.900; 5181.000;   97.300
1098.198; 5297.800; 5278.000;   92.600
1098.741; 5520.600; 5520.000;   91.800
1099.285; 5827.700; 5763.000;   88.000
1099.828; 3821.700; 3796.000;   91.700
1100.371; 5433.200; 5383.000;   89.900
1100.914; 6152.400; 6094.000;   91.500
1101.457; 6050.600; 6083.000;   88.100
1101.999; 5119.400; 5084.000;   86.400
1102.542; 5654.500; 5645.000;   90.800
1103.085; 5916.800; 5802.000;   95.400
1103.628; 6917.000; 6918.000;   97.700
1104.170; 5169.300; 5102.000;   84.000
1104.713; 5772.000; 5745.000;   93.900
1105.256; 4906.200; 4875.000;   93.000
1105.798; 4423.200; 4434.000;   85.600
1106.341; 6579.300; 6532.000;   87.100
1106.883; 4604.600; 4570.000;   85.200
1107.425; 6051.200; 6045.000;   85.000
1107.968; 5534.200; 5472.000;   84.300
1108.510; 6151.200; 6108.000;   88.200
1109.052; 5533.300; 5533.000;   86.600
1109.594; 4928.800; 4946.000;   79.400
1110.136; 5784.300; 5831.000;   81.700
1110.679; 5614.300; 5623.000;   75.500
1111.221; 5423.900; 5411.000;   88.500
1111.763; 4945.400; 4911.000;   87.700
1112.304; 4844.100; 4854.000;   89.700
1112.846; 6032.800; 5956.000;   81.900
1113.388; 8723.400; 8762.000;   86.400
1113.930; 6270.300; 6282.000;   84.700
1114.472; 5431.400; 5366.000;   78.900
1115.013; 4926.900; 4872.000;   78.100
1115.555; 5288.900; 5271.000;   84.900
1116.097; 5105.500; 5162.000;   79.200
1116.638; 6216.300; 6142.000;   83.700
1117.180; 5965.700; 5892.000;   85.500
1117.721; 5125.400; 5089.000;   78.800
1118.262; 6133.800; 6168.000;   77.400
1118.804; 5725.700; 5668.000;   81.400
1119.345; 5216.500; 5154.000;   77.800
1119.886; 6397.000; 6365.000;   81.200
1120.427; 5271.300; 5263.000;   77.200
1120.969; 5401.000; 5361.000;   75.200
1121.510; 5034.700; 5095.000;   80.900
1122.051; 6561.000; 6478.000;   77.300
1122.592; 5925.300; 5955.000;   73.300
1123.133; 4879.400; 4880.000;   90.100
1123.673; 6458.400; 6445.000;   75.000
1124.214; 5529.700; 5548.000;   80.600
1124.755; 5835.200; 5830.000;   78.000
1125.296; 5633.100; 5628.000;   77.500
1125.836; 6226.100; 6237.000;   80.400
1126.377; 5433.100; 5435.000;   75.600
1126.918; 5555.800; 5571.000;   78.900
1127.458; 5615.300; 5616.000;   78.000
1127.999; 5931.000; 5905.000;   76.100
1128.539; 6280.500; 6283.000;   81.400
1129.079; 5757.900; 5794.000;   77.400
1129.620; 5026.000; 5066.000;   68.000
1130.160; 4859.200; 4819.000;   77.500
1130.700; 5791.100; 5809.000;   76.300
1131.240; 5818.600; 5810.000;   66.800
1131.781; 5669.500; 5572.000;   70.600
1132.321; 5440.900; 5434.000;   77.200
1132.861; 5040.800; 4954.000;   70.400
1133.401; 5402.600; 5415.000;   68.700
1133.941; 5675.200; 5752.000;   68.500
1134.481; 5463.200; 5399.000;   75.900
1135.020; 5498.400; 5478.000;   66.600
1135.560; 6075.700; 6106.000;   68.100
1136.100; 4489.700; 4466.000;   64.900
1136.640; 4611.100; 4595.000;   72.500
1137.179; 4773.400; 4772.000;   69.700
1137.719; 5519.700; 5456.000;   68.400
1138.258; 5343.200; 5364.000;   67.000
1138.798; 6017.000; 5978.000;   69.600
1139.337; 4331.100; 4292.000;   64.000
1139.877; 5788.400; 5855.000;   64.500
1140.416; 8042.200; 8129.000;   74.900
1140.955; 4770.500; 4763.000;   67.200
1141.494; 6171.300; 6114.000;   69.900
1142.034; 5267.200; 5349.000;   59.100
1142.573; 5870.500; 5846.000;   65.900
1143.112; 5002.100; 4973.000;   70.600
1143.651; 4847.800; 4810.000;   67.100
1144.190; 6341.900; 6414.000;   56.700
1144.729; 5522.300; 5553.000;   61.800
1145.267; 5252.200; 5202.000;   62.500
1145.806; 5811.200; 5715.000;   68.500
1146.345; 5847.300; 5888.000;   58.300
1146.884; 5717.900; 5660.000;   63.100
1147.422; 4788.400; 4811.000;   54.800
1147.961; 6543.200; 6432.000;   67.600
1148.500; 6115.600; 6104.000;   64.700
1149.038; 5816.400; 5811.000;   61.000
1149.577; 6399.300; 6411.000;   65.100
1150.115; 4050.200; 3998.000;   58.100
1150.653; 5540.500; 5591.000;   60.500
1151.192; 5043.500; 5061.000;   56.600
1151.730; 6004.100; 5962.000;   62.300
1152.268; 5327.100; 5302.000;   55.500
1152.806; 5232.500; 5130.000;   58.200
1153.344; 5242.800; 5204.000;   55.000
1153.882; 5433.100; 5389.000;   64.200
1154.421; 4191.900; 4188.000;   60.300
1154.958; 5488.300; 5482.000;   58.100
1155.496; 5886.300; 5874.000;   55.800
1156.034; 6654.100; 6597.000;   61.000
1156.572; 6121.300; 6053.000;   56.200
1157.110; 4231.500; 4289.000;   53.200
1157.647; 6201.800; 6224.000;   57.400
1158.185; 5172.300; 5144.000;   55.500
1158.723; 4619.800; 4643.000;   58.000
1159.260; 6438.700; 6461.000;   53.700
1159.798; 6032.800; 6045.000;   51.700
1160.335; 5826.000; 5797.000;   59.600

