
Integration time [ms]:   3.276
Averaging Nr. [scans]: 1000
Smoothing Nr. [pixels]: 0
Data measured with spectrometer [name]: 7414430SP
Wave   ;Sample   ;Dark     ;Reference
[nm]   ;[counts] ;[counts] ;[counts] 

288.544;  157.476;    7.793;  793.890
289.143;  160.021;    7.462;  681.602
289.742;  162.140;    8.602;  828.814
290.341;  149.354;    1.321;  789.841
290.940;  139.871;   -0.709;  730.702
291.538;  139.838;    0.881;  881.108
292.137;  137.957;    0.122;  792.581
292.736;  141.610;   -1.929;  975.101
293.335;  138.956;   -8.229;  735.086
293.934;  137.889;   -5.279;  781.677
294.532;  138.034;   -1.369; 1031.958
295.131;  123.569;   -7.641;  834.394
295.730;  124.640;   -8.420;  809.588
296.328;  122.590;   -5.611;  783.442
296.927;  122.156;   -5.781;  779.652
297.525;  122.949;   -6.361;  781.236
298.124;  113.575;  -11.382;  654.009
298.722;  117.948;   -7.641;  761.933
299.321;  116.333;   -6.811;  708.597
299.919;  113.379;   -6.991;  751.918
300.518;  109.703;  -10.362;  689.338
301.116;  111.022;   -9.581;  691.381
301.715;  111.455;   -4.891;  730.222
302.313;  110.142;   -8.801;  704.943
302.911;  105.532;   -8.522;  733.830
303.509;  110.142;   -6.171;  925.627
304.108;  108.260;   -7.311;  760.383
304.706;  107.264;   -8.321;  801.664
305.304;  102.229;  -10.222;  796.707
305.902;  107.572;   -6.021;  784.484
306.500;  102.301;   -4.971;  728.200
307.098;  100.601;   -7.061;  746.560
307.696;   99.019;   -8.801;  780.432
308.294;  100.150;   -6.411;  731.359
308.892;  101.636;   -2.901;  759.769
309.490;   96.456;   -5.041;  712.161
310.088;   95.833;   -5.002;  788.444
310.686;  100.550;   -2.041;  821.749
311.284;   95.942;   -2.351;  766.040
311.882;   92.955;   -4.422;  731.225
312.480;   90.211;   -4.192;  697.167
313.078;   91.324;   -1.172;  808.331
313.675;   92.165;   -2.601;  691.600
314.273;   86.875;   -1.312;  797.837
314.871;   85.492;   -3.942;  589.829
315.468;   84.264;   -2.802;  652.090
316.066;   86.855;   -0.701;  694.427
316.664;   79.713;   -4.362;  656.351
317.261;   84.192;   -2.872;  910.128
317.859;   79.115;   -2.022;  768.735
318.456;   80.210;   -0.531;  830.096
319.054;   75.175;   -3.912;  787.828
319.651;   74.781;   -4.752;  759.928
320.249;   73.445;   -2.602;  810.188
320.846;   71.118;   -0.821;  714.286
321.443;   68.358;   -4.642;  832.135
322.041;   65.372;   -5.002;  812.315
322.638;   63.195;   -3.982;  701.456
323.235;   64.135;   -3.411;  665.683
323.833;   61.161;   -7.361;  740.354
324.430;   56.720;   -8.611;  615.900
325.027;   56.829;   -4.061;  876.855
325.624;   57.820;   -4.031;  644.532
326.221;   53.670;   -7.481;  689.717
326.818;   53.296;   -5.281;  818.332
327.415;   56.328;   -7.460;  748.828
328.012;   56.024;   -5.510;  690.585
328.609;   53.800;   -7.880;  731.389
329.206;   51.450;   -8.331;  778.621
329.803;   51.018;   -5.121;  737.841
330.400;   54.818;   -4.510;  704.260
330.997;   56.693;   -6.441;  817.147
331.594;   54.467;   -8.831;  788.185
332.191;   59.614;   -7.621;  728.722
332.787;   63.034;   -4.591;  844.463
333.384;   62.803;   -7.412;  763.093
333.981;   61.031;   -8.293;  815.687
334.578;   63.894;   -7.052;  708.378
335.174;   67.588;   -3.102;  731.469
335.771;   66.545;   -5.943;  836.456
336.367;   63.763;   -7.393;  710.631
336.964;   67.701;   -4.063;  793.266
337.561;   66.297;   -3.813;  731.112
338.157;   61.183;   -4.654;  911.916
338.754;   59.811;   -7.934;  796.589
339.350;   56.937;   -4.414;  722.493
339.946;   59.187;   -4.664;  773.135
340.543;   52.364;   -6.375;  846.136
341.139;   45.888;   -9.815;  720.836
341.735;   42.659;   -4.526;  772.593
342.332;   41.790;   -4.895;  691.472
342.928;   42.532;   -4.295;  795.394
343.524;   35.919;   -5.476;  761.684
344.120;   30.491;   -5.856;  738.562
344.716;   35.244;   -2.155;  723.717
345.313;   32.340;   -6.275;  795.342
345.909;   26.859;   -8.815;  627.336
346.505;   28.505;   -5.305;  740.247
347.101;   29.268;   -2.674;  827.864
347.697;   28.766;   -4.344;  785.398
348.293;   23.776;   -9.975;  627.244
348.889;   24.139;   -5.774;  745.914
349.485;   24.179;   -5.004;  688.205
350.081;   23.896;   -4.704;  772.592
350.676;   20.499;   -6.635;  691.606
351.272;   24.338;   -4.504;  809.530
351.868;   23.528;   -3.914;  780.497
352.464;   20.547;   -9.044;  723.932
353.059;   17.718;   -8.314;  646.017
353.655;   20.078;   -7.024;  777.063
354.251;   20.884;   -5.343;  759.845
354.846;   15.294;   -8.604;  740.646
355.442;   13.870;   -6.945;  753.071
356.038;   15.387;   -7.564;  751.708
356.633;   15.489;   -5.814;  728.594
357.229;   13.417;   -7.364;  724.757
357.824;   11.428;   -8.024;  703.600
358.420;   10.638;   -9.384;  679.726
359.015;   11.763;   -5.104;  695.357
359.610;   12.621;   -6.854;  763.920
360.206;    7.043;  -10.185;  603.240
360.801;    9.517;   -7.054;  646.503
361.396;   11.625;   -5.034;  725.975
361.992;    6.627;   -8.284;  668.220
362.587;    3.657;   -8.625;  670.160
363.182;    5.471;   -7.674;  689.631
363.777;    6.568;   -5.164;  738.242
364.372;    6.390;   -8.604;  737.314
364.967;    2.343;   -9.055;  680.744
365.563;    6.824;   -6.114;  815.567
366.158;    3.604;   -5.814;  685.161
366.753;    3.991;   -7.854;  649.263
367.348;    2.955;   -7.804;  746.056
367.942;    2.348;   -7.954;  697.298
368.537;    1.753;   -4.984;  754.245
369.132;    1.900;   -8.564;  703.428
369.727;   -2.608;   -8.855;  638.079
370.322;   -1.113;   -6.245;  580.186
370.917;   -1.674;   -6.425;  710.646
371.511;    1.248;   -6.294;  861.834
372.106;   -2.236;   -7.685;  776.964
372.701;   -5.268;   -7.335;  585.988
373.296;    0.993;   -4.564;  863.135
373.890;   -4.954;  -10.235;  647.840
374.485;   -6.521;   -7.885;  691.199
375.079;   -2.911;   -7.324;  738.685
375.674;   -1.702;   -3.494;  812.970
376.268;   -5.806;   -8.525;  691.759
376.863;  -10.892;  -10.086;  580.327
377.457;   -5.019;   -7.025;  662.490
378.052;   -7.233;   -3.585;  764.884
378.646;   -7.862;   -7.595;  741.167
379.240;   -8.962;   -8.335;  721.176
379.835;   -7.803;   -5.785;  636.978
380.429;  -10.194;   -4.335;  562.557
381.023;  -10.327;   -6.805;  779.205
381.617;  -12.477;   -9.195;  680.106
382.212;   -9.130;   -6.905;  685.303
382.806;   -8.320;   -3.745;  760.690
383.400;  -12.718;   -7.745;  672.281
383.994;  -13.598;   -9.765;  664.870
384.588;   -9.971;   -6.564;  697.701
385.182;   -7.977;   -5.344;  726.624
385.776;   -9.539;   -8.514;  706.875
386.370;  -12.803;   -9.555;  681.968
386.964;  -11.568;   -8.715;  684.155
387.558;  -10.573;   -6.174;  598.360
388.152;  -13.544;   -8.725;  681.959
388.745;  -12.402;   -7.965;  814.707
389.339;  -10.299;   -5.924;  747.642
389.933;  -10.241;   -5.524;  695.370
390.527;  -10.606;   -7.114;  859.029
391.120;  -16.508;  -10.725;  595.318
391.714;  -13.759;   -8.035;  711.633
392.308;  -10.427;   -3.574;  780.253
392.901;  -14.483;   -7.245;  642.460
393.495;  -16.079;   -9.285;  595.414
394.089;  -14.174;   -5.895;  760.452
394.682;  -14.553;   -4.295;  697.188
395.275;  -15.524;   -9.875;  719.927
395.869;  -16.440;   -8.485;  667.314
396.462;  -14.693;   -7.455;  616.609
397.056;  -11.187;   -5.424;  776.621
397.649;  -15.703;   -6.605;  731.575
398.242;  -13.276;   -8.224;  712.645
398.836;  -12.248;   -7.474;  766.408
399.429;  -13.009;   -7.094;  631.041
400.022;  -16.880;   -9.475;  665.902
400.615;  -14.286;   -7.145;  805.609
401.208;  -13.024;   -7.174;  691.451
401.802;  -14.686;   -5.515;  699.329
402.395;  -16.041;   -9.875;  683.502
402.988;  -17.140;   -8.845;  696.627
403.581;  -14.130;   -8.874;  646.878
404.174;  -11.554;   -5.324;  686.568
404.767;  -14.660;   -9.575;  638.583
405.360;  -17.051;  -10.965;  621.445
405.953;  -11.301;   -8.764;  759.034
406.545;  -10.557;   -7.514;  725.342
407.138;  -15.159;  -10.025;  618.350
407.731;  -14.319;  -10.034;  613.303
408.324;   -9.477;   -9.374;  660.554
408.917;  -11.164;   -6.534;  681.864
409.509;  -12.771;   -8.004;  740.396
410.102;  -15.152;   -9.875;  643.948
410.695;   -9.423;   -8.604;  665.758
411.287;  -10.131;   -6.794;  599.821
411.880;  -11.465;   -9.334;  585.421
412.472;  -13.722;  -10.254;  613.092
413.065;  -11.595;   -6.714;  629.408
413.657;   -9.219;   -7.234;  576.678
414.250;   -9.572;  -10.544;  646.681
414.842;  -11.455;   -9.744;  676.353
415.434;   -8.984;   -6.994;  570.463
416.027;   -4.901;   -5.893;  652.196
416.619;   -6.576;   -7.264;  713.400
417.211;   -7.200;  -10.374;  599.352
417.804;   -3.480;   -7.993;  628.499
418.396;   -7.991;   -7.234;  607.643
418.988;   -5.600;   -9.443;  659.238
419.580;   -8.990;  -10.724;  568.276
420.172;   -6.190;  -10.323;  536.196
420.764;   -2.376;   -8.793;  672.482
421.356;   -3.748;  -11.143;  636.898
421.948;   -4.747;   -8.293;  677.661
422.540;    0.348;   -7.893;  680.027
423.132;   -0.090;   -7.082;  600.641
423.724;   -3.758;   -8.653;  561.267
424.316;   -1.011;  -10.213;  621.345
424.908;    2.052;   -9.762;  591.517
425.500;    2.665;   -5.572;  647.978
426.092;    3.265;   -8.422;  648.268
426.683;    1.990;   -9.283;  684.836
427.275;    4.260;   -7.852;  641.471
427.867;    6.513;   -5.272;  668.948
428.458;    6.430;   -7.682;  732.344
429.050;    5.532;  -10.612;  680.749
429.642;    7.272;   -9.882;  743.124
430.233;    8.004;   -6.962;  569.356
430.825;    8.876;   -6.842;  724.809
431.416;    6.755;   -9.672;  698.241
432.008;   10.200;   -6.552;  651.723
432.599;   10.718;   -6.891;  656.073
433.190;    7.698;  -10.912;  637.670
433.782;    7.827;  -11.172;  590.395
434.373;   14.673;   -6.061;  884.765
434.964;   12.817;   -8.251;  602.920
435.556;   10.569;   -9.722;  634.537
436.147;   13.721;   -9.082;  758.490
436.738;   13.950;   -8.041;  701.099
437.329;   19.288;   -7.341;  721.723
437.920;   11.712;   -8.162;  666.688
438.511;   11.491;  -11.802;  564.526
439.103;   18.303;  -10.191;  623.998
439.694;   20.298;   -7.601;  681.583
440.285;   20.881;   -8.541;  764.432
440.876;   19.205;   -9.751;  845.738
441.466;   18.253;   -9.401;  575.162
442.057;   24.621;   -7.760;  665.814
442.648;   22.495;   -9.971;  746.255
443.239;   20.267;  -11.001;  620.477
443.830;   25.463;   -7.990;  704.958
444.421;   27.326;   -7.910;  655.474
445.011;   24.008;   -8.131;  693.619
445.602;   24.272;   -7.111;  743.126
446.193;   25.583;  -10.920;  488.117
446.783;   30.562;   -6.500;  640.397
447.374;   24.915;   -8.671;  692.759
447.964;   26.226;  -10.781;  713.770
448.555;   34.682;   -9.650;  822.742
449.145;   31.920;   -8.660;  662.853
449.736;   31.744;   -8.990;  803.179
450.326;   31.624;   -9.500;  713.626
450.917;   36.603;   -8.680;  675.324
451.507;   35.580;   -7.520;  600.661
452.097;   35.927;   -8.590;  746.267
452.688;   37.281;  -11.340;  742.160
453.278;   36.788;  -10.100;  566.840
453.868;   41.577;   -6.019;  793.550
454.458;   39.492;   -9.440;  651.141
455.048;   40.052;  -10.560;  711.783
455.639;   41.433;  -11.799;  567.096
456.229;   44.732;   -6.899;  710.694
456.819;   46.455;   -7.389;  751.158
457.409;   46.742;  -11.119;  773.993
457.999;   48.962;   -9.289;  737.505
458.589;   49.815;   -6.139;  686.606
459.179;   49.662;   -8.729;  717.658
459.769;   47.182;   -9.789;  627.099
460.358;   53.087;  -10.259;  797.262
460.948;   52.589;   -7.299;  689.503
461.538;   54.628;  -10.289;  660.677
462.128;   52.185;  -11.269;  664.934
462.717;   58.770;   -9.368;  710.326
463.307;   61.878;   -7.908;  705.846
463.897;   56.783;   -9.599;  656.942
464.486;   56.830;   -9.769;  837.128
465.076;   60.620;   -8.048;  733.776
465.666;   64.751;   -9.358;  652.900
466.255;   62.640;   -7.919;  785.651
466.845;   61.158;  -11.689;  666.749
467.434;   65.427;   -7.818;  725.873
468.023;   65.537;   -7.678;  658.357
468.613;   63.373;  -10.939;  713.946
469.202;   67.758;  -10.118;  646.507
469.791;   71.885;   -9.108;  737.811
470.381;   73.495;   -6.058;  742.813
470.970;   74.339;  -10.428;  711.099
471.559;   73.277;  -10.268;  733.291
472.148;   75.875;   -8.448;  675.737
472.738;   78.258;   -6.917;  765.466
473.327;   78.418;  -11.978;  637.529
473.916;   77.370;  -11.888;  737.446
474.505;   82.357;   -9.437;  751.703
475.094;   85.255;   -6.747;  806.570
475.683;   84.785;   -9.367;  797.699
476.272;   85.265;  -12.637;  730.632
476.861;   88.057;  -10.027;  706.754
477.449;   95.380;   -8.716;  728.487
478.038;   88.377;   -9.577;  692.513
478.627;   90.330;   -9.718;  714.852
479.216;   97.037;   -8.947;  769.441
479.805;  100.741;   -6.256;  783.375
480.393;   99.189;   -7.937; 1008.945
480.982;   99.576;   -7.717;  874.501
481.571;  105.439;   -9.266;  858.333
482.159;  105.873;   -7.636;  705.386
482.748;  105.832;   -9.667;  821.385
483.336;  111.200;  -10.376;  858.209
483.925;  111.231;   -7.147;  774.373
484.513;  118.026;   -7.996;  758.962
485.102;  114.553;  -10.027;  810.965
485.690;  123.207;  -10.446; 1011.050
486.278;  124.399;   -8.446;  979.329
486.867;  126.312;   -6.356;  809.662
487.455;  127.526;   -9.136;  898.229
488.043;  129.181;  -10.646;  748.361
488.631;  137.780;   -7.456; 1005.079
489.220;  141.187;   -6.636;  908.626
489.808;  142.295;  -11.036;  741.415
490.396;  149.670;  -10.246;  914.645
490.984;  156.296;   -8.556;  830.161
491.572;  168.433;   -5.886;  940.315
492.160;  174.908;   -9.486;  919.081
492.748;  185.211;  -10.976;  884.341
493.336;  207.247;   -8.776; 1019.693
493.924;  236.494;   -5.465;  958.077
494.512;  269.589;   -9.986; 1066.638
495.100;  311.173;  -10.636; 1103.280
495.687;  374.452;  -10.885; 1206.373
496.275;  451.548;   -8.126; 1150.796
496.863;  534.707;  -10.586; 1281.171
497.451;  640.727;  -11.926; 1386.805
498.038;  743.677;  -10.885; 1556.729
498.626;  859.677;   -6.315; 1741.407
499.214; 1059.609;   -7.326; 2016.609
499.801; 1289.905;  -11.906; 2220.633
500.389; 1589.323;  -10.466; 2312.494
500.976; 1857.804;   -5.236; 2744.849
501.564; 2336.329;   -8.936; 3148.565
502.151; 2968.823;  -13.176; 3515.999
502.738; 3347.541;  -10.646; 3971.274
503.326; 3768.703;   -9.525; 4403.796
503.913; 4215.456;  -10.856; 5161.749
504.500; 4616.783;  -11.586; 5986.420
505.088; 5170.542;  -10.336; 6381.201
505.675; 6005.624;   -6.355; 6925.547
506.262; 6601.870;   -9.046; 7619.060
506.849; 6958.468;  -10.416; 8733.969
507.436; 7425.434;  -10.305; 9790.121
508.023; 7815.820;   -5.496; 9985.472
508.610; 7951.838;   -7.856;10434.618
509.197; 8945.653;  -10.097;11198.435
509.784;10278.176;  -10.886;12391.194
510.371;11816.766;   -9.315;13603.713
510.958;12961.812;   -9.936;14426.586
511.545;13471.213;   -9.326;15243.775
512.132;13622.021;  -10.075;15945.876
512.719;14133.651;   -7.796;16340.369
513.305;15302.654;  -10.606;18011.766
513.892;16955.838;  -11.486;19754.971
514.479;18287.092;   -9.126;20967.805
515.066;19648.775;   -6.026;22299.793
515.652;19892.914;   -8.466;22908.660
516.239;20573.574;  -10.886;23798.875
516.825;21906.828;  -11.496;25567.275
517.412;23367.451;   -5.796;28154.959
517.998;24616.770;  -10.506;28344.111
518.585;25455.855;  -10.076;27134.219
519.171;24961.805;   -8.315;27268.576
519.758;25749.873;   -8.596;28964.129
520.344;28105.295;   -8.466;30664.494
520.930;27044.031;  -11.006;32550.605
521.516;25802.732;  -10.495;35422.895
522.103;27650.596;   -5.526;38280.004
522.689;29869.148;   -8.746;37835.117
523.275;30981.279;  -11.376;37288.613
523.861;32765.254;  -11.156;37281.395
524.447;32444.963;   -8.135;37846.949
525.033;32812.797;   -7.896;38321.949
525.619;33560.371;  -12.476;38579.285
526.205;33537.793;   -9.516;40622.875
526.791;33391.547;   -6.926;42258.836
527.377;33231.340;   -8.346;42966.902
527.963;34892.156;   -8.717;42018.949
528.549;36428.484;  -11.016;42476.828
529.135;35102.277;   -8.536;41854.852
529.721;35018.695;   -9.666;41237.711
530.306;34411.277;  -10.066;41259.445
530.892;35462.684;  -11.356;41506.047
531.478;37814.129;   -6.596;43559.613
532.063;39962.379;   -8.836;47695.563
532.649;38215.121;  -10.047;50808.324
533.235;38137.508;   -9.746;51787.500
533.820;40556.902;   -6.566;52145.035
534.406;41940.770;  -10.817;51133.488
534.991;43504.461;   -9.416;49996.805
535.576;42339.703;   -9.036;48882.852
536.162;40019.199;   -6.156;46942.285
536.747;40495.109;  -11.607;45711.746
537.333;42879.938;  -11.787;48510.180
537.918;43845.563;  -12.437;50439.891
538.503;43615.469;   -7.196;50863.711
539.088;44329.410;  -10.556;50906.922
539.673;44860.043;   -8.767;52621.965
540.259;42117.137;  -10.026;52368.094
540.844;41843.898;   -7.416;50879.109
541.429;41052.090;   -9.467;52077.777
542.014;40430.707;   -9.527;52716.695
542.599;43834.867;   -9.946;52363.281
543.184;45330.855;   -7.927;53187.137
543.769;45247.262;   -9.297;54697.605
544.354;45403.332;  -10.127;53913.914
544.938;43200.059;   -9.267;49680.164
545.523;41417.246;   -6.506;47386.277
546.108;43284.863;   -9.787;49151.949
546.693;44142.859;  -11.587;51384.637
547.278;44911.758;  -10.986;51853.254
547.862;45180.156;   -8.206;51173.750
548.447;43090.742;  -10.067;51691.395
549.031;43225.883;   -9.637;52456.703
549.616;43548.031;   -9.926;52714.516
550.201;42798.934;   -6.347;52414.598
550.785;43884.793;   -7.917;52355.059
551.370;44993.375;  -10.867;54589.453
551.954;47219.074;   -9.047;58267.348
552.538;46296.023;   -7.827;59062.176
553.123;44581.051;  -10.287;58115.285
553.707;43843.043;  -12.178;56556.285
554.291;41170.465;   -8.717;56201.668
554.876;42311.746;   -7.457;55335.762
555.460;44420.609;  -10.387;54155.703
556.044;45930.375;   -9.618;53721.484
556.628;47061.551;  -11.567;53731.016
557.212;47881.480;   -8.097;54312.531
557.796;48970.352;  -11.077;53797.773
558.380;46657.645;  -11.108;56145.984
558.964;44966.996;   -9.057;57277.930
559.548;42592.094;   -6.977;56459.641
560.132;39333.344;  -11.457;54434.543
560.716;40457.910;  -11.378;54800.617
561.300;42320.254;   -9.577;57606.945
561.884;40855.914;   -7.127;58972.445
562.467;39529.207;   -7.118;57327.570
563.051;38107.270;  -13.358;54962.434
563.635;36239.953;  -10.178;52594.473
564.219;38405.785;   -7.837;50610.410
564.802;42182.004;  -11.398;49551.180
565.386;42477.000;  -12.788;48370.953
565.969;43544.348;   -9.077;48178.871
566.553;42230.879;   -6.207;49957.305
567.136;40412.387;   -8.568;50369.594
567.720;41692.598;  -11.868;49492.004
568.303;42906.605;   -8.268;50616.352
568.887;42413.930;   -8.698;50727.148
569.470;40564.281;   -6.808;51698.379
570.053;38381.875;  -13.188;52122.078
570.637;35941.102;  -12.037;52536.438
571.220;35824.328;   -8.577;51186.098
571.803;35951.664;   -8.498;51032.762
572.386;37736.453;  -10.498;49609.887
572.969;38246.102;   -9.388;48285.926
573.552;38255.223;   -8.338;47624.285
574.135;36998.363;   -8.518;45498.641
574.718;33869.633;  -13.628;41970.434
575.301;34023.797;  -10.893;41447.137
575.884;34177.957;   -8.158;40923.836
576.467;38683.859;  -10.328;45267.723
577.050;39487.762;  -13.058;48175.543
577.633;39033.609;   -9.458;47729.328
578.216;35910.168;   -8.928;47579.793
578.799;33573.008;   -9.358;47820.996
579.381;34884.758;  -11.388;48115.551
579.964;35305.348;  -11.718;47333.766
580.547;34060.605;   -8.588;46668.969
581.129;34390.301;   -8.859;44466.141
581.712;36109.957;  -10.729;44164.922
582.294;35944.602;  -11.118;46477.855
582.877;36666.652;   -5.218;48244.254
583.459;37036.668;   -8.679;47437.895
584.042;38252.137;  -10.709;46943.219
584.624;35913.910;  -11.669;46792.227
585.206;34800.969;   -8.218;46557.250
585.789;36187.680;  -10.569;45793.773
586.371;36482.898;  -11.859;43836.391
586.953;36862.695;  -10.719;42972.492
587.536;37909.902;   -7.198;42487.211
588.118;37415.457;   -8.720;42086.414
588.700;36392.512;  -10.439;43389.930
589.282;33632.938;   -9.198;43646.039
589.864;31502.385;   -9.199;43438.109
590.446;31043.313;  -11.319;43151.926
591.028;29946.652;  -11.159;42781.867
591.610;29143.777;  -11.779;42839.098
592.192;28430.613;   -7.668;42820.402
592.774;26967.066;  -11.949;40724.277
593.356;26611.969;  -12.129;39874.789
593.937;28613.615;  -10.669;39980.648
594.519;32379.811;   -6.509;42069.633
595.101;32875.102;  -10.849;42976.031
595.683;31809.887;  -11.679;44084.441
596.264;31154.305;   -9.049;43478.797
596.846;30757.037;   -8.849;43803.672
597.427;31025.506;   -9.570;42986.934
598.009;32728.076;  -12.620;42832.219
598.591;32726.932;  -10.039;42580.086
599.172;34894.297;  -10.369;43061.805
599.753;36777.047;   -9.140;41691.469
600.335;36217.453;  -11.430;40692.520
600.916;33408.301;   -9.939;39982.422
601.498;30481.682;   -8.479;40318.617
602.079;30387.283;  -10.920;40670.609
602.660;30087.332;  -11.480;41450.898
603.241;30663.006;  -11.699;41137.738
603.823;30685.221;   -9.579;38868.797
604.404;30274.900;  -10.620;38182.785
604.985;33139.137;  -10.450;38078.047
605.566;34024.535;   -9.129;38056.633
606.147;34910.063;   -7.510;37020.418
606.728;33563.527;  -10.660;37883.359
607.309;31875.508;  -11.740;38748.273
607.890;31759.221;   -9.759;38850.230
608.471;30321.838;   -8.250;37457.918
609.051;30206.715;   -9.240;36066.457
609.632;30039.082;  -12.120;35991.074
610.213;29895.881;   -9.110;37402.641
610.794;30720.617;   -8.030;38383.363
611.374;29400.338;   -8.110;40562.387
611.955;29318.609;  -13.560;38533.727
612.536;30237.725;  -11.400;36951.789
613.116;29769.697;   -8.070;37197.891
613.697;30496.586;  -10.830;38411.125
614.277;30068.283;  -11.641;38673.938
614.858;29563.512;  -13.310;37075.863
615.438;29415.111;   -7.460;35092.906
616.019;27517.773;   -7.601;33666.301
616.599;28290.012;  -12.020;34189.023
617.179;28154.840;  -11.780;36952.047
617.760;27449.896;   -8.570;39582.574
618.340;28412.021;  -11.471;38943.977
618.920;29099.645;  -11.170;37594.156
619.500;29802.584;  -11.071;37866.938
620.080;30123.072;   -7.750;37869.043
620.660;30314.873;  -12.711;36868.617
621.241;31022.578;  -10.211;36352.309
621.821;30608.365;  -10.961;35459.520
622.401;30677.486;   -7.720;35207.414
622.980;32495.799;   -8.981;35980.422
623.560;31086.404;   -9.331;37351.328
624.140;26939.816;   -9.850;34388.582
624.720;23273.354;   -7.451;32368.764
625.300;23060.689;   -9.070;32638.629
625.880;27079.277;  -12.601;34599.035
626.459;29686.955;  -11.751;36831.738
627.039;29300.258;   -9.281;38299.098
627.619;28857.381;   -8.801;38289.574
628.198;29420.037;  -12.071;37220.695
628.778;30436.504;   -9.461;37632.563
629.357;31343.566;   -8.491;38003.012
629.937;31025.930;   -9.721;38402.039
630.516;31507.020;   -9.951;37868.801
631.096;32189.953;  -11.731;35760.410
631.675;34188.816;   -8.572;35225.219
632.254;34167.242;  -11.282;35130.289
632.834;33170.055;  -13.322;35794.570
633.413;33955.633;  -10.301;35788.922
633.992;33937.359;   -8.582;34532.863
634.571;34933.816;   -8.352;33590.113
635.151;33965.988;  -11.912;34943.863
635.730;31947.938;  -10.511;35352.523
636.309;31673.219;   -7.731;35366.605
636.888;31189.688;   -9.952;36165.637
637.467;30629.305;  -11.672;37515.902
638.046;29070.893;   -8.901;39288.695
638.625;28447.906;   -7.912;38279.699
639.204;27941.637;  -10.022;37741.598
639.782;29429.273;  -12.252;38364.551
640.361;31724.695;  -10.041;36740.621
640.940;31560.824;  -11.161;34950.082
641.519;30980.887;   -9.701;34137.398
642.097;31683.822;  -11.271;35654.258
642.676;31572.889;   -8.651;35637.957
643.255;30726.357;   -8.711;36567.074
643.833;30453.338;   -9.581;37809.434
644.412;31094.369;  -13.711;37337.293
644.990;32298.730;  -11.811;37018.531
645.569;35145.422;   -9.411;36518.469
646.147;35642.422;  -10.291;36186.430
646.726;33880.164;  -12.401;36267.688
647.304;32447.814;  -10.411;36647.625
647.882;33130.109;   -9.651;39286.742
648.461;32855.832;   -9.631;39157.703
649.039;30263.652;  -11.881;35412.883
649.617;30128.475;   -9.661;34744.918
650.195;30633.814;   -9.301;35403.098
650.773;29916.010;  -10.511;35053.797
651.352;29716.383;  -11.521;33756.816
651.930;28491.918;  -12.211;31868.773
652.508;27711.961;   -9.171;33121.551
653.086;29129.262;   -9.371;33564.793
653.663;31272.158;  -13.161;34054.668
654.241;30047.822;  -13.031;35693.309
654.819;28218.537;   -9.371;36422.906
655.397;28901.023;  -10.511;38213.484
655.975;29180.105;  -10.371;39507.625
656.553;29987.365;  -10.051;39498.223
657.130;30767.256;  -10.061;40395.480
657.708;27825.982;   -9.561;39242.020
658.286;25540.607;  -11.511;38920.020
658.863;25921.008;  -10.261;40202.898
659.441;28533.484;   -7.531;39677.938
660.018;31185.121;   -9.501;40413.355
660.596;31884.373;  -13.301;39931.414
661.173;34604.793;  -11.211;39604.531
661.750;33650.070;   -9.951;39700.070
662.328;31005.213;   -9.390;39292.809
662.905;29785.809;  -11.330;38235.648
663.482;27158.053;   -9.050;36212.305
664.060;24765.670;   -8.240;35944.945
664.637;28556.896;  -10.050;35170.785
665.214;32854.789;  -11.760;34197.523
665.791;31727.010;  -10.530;34549.520
666.368;31698.814;   -9.690;35118.578
666.945;31912.506;   -9.320;36019.418
667.522;32476.611;  -11.860;36048.438
668.099;31322.996;  -10.770;36243.914
668.676;31770.283;   -6.260;35958.875
669.253;34078.055;   -7.000;37384.730
669.830;34083.348;  -10.190;36779.629
670.407;32710.387;   -9.550;35231.289
670.984;32089.961;   -9.260;35544.270
671.560;30901.262;   -9.280;35466.867
672.137;29620.982;  -11.810;34280.863
672.714;29730.129;  -11.490;34632.863
673.290;30205.770;   -7.740;35135.422
673.867;30398.668;  -10.660;36114.480
674.443;29652.586;  -12.230;36152.859
675.020;28125.246;  -10.450;35327.238
675.596;27006.930;   -9.260;35795.176
676.173;28177.078;  -10.780;35430.355
676.749;28876.848;  -13.690;33549.516
677.326;29634.773;  -11.980;32210.012
677.902;27676.494;   -8.630;32068.871
678.478;26223.342;  -10.730;32583.891
679.054;28206.070;  -10.520;32088.928
679.631;29617.434;  -11.920;30978.848
680.207;30807.322;   -7.490;33160.887
680.783;32140.434;   -9.860;35570.363
681.359;32542.924;  -13.380;36125.184
681.935;31225.740;  -12.480;35240.922
682.511;31836.193;   -7.900;34429.961
683.087;32484.844;   -7.710;34463.680
683.663;33043.441;  -11.480;34648.898
684.239;32846.727;  -14.090;34546.457
684.815;33931.879;   -7.560;35586.375
685.390;33881.410;   -9.910;35821.895
685.966;33555.410;  -11.159;35085.871
686.542;34221.547;  -11.169;34198.230
687.118;32715.400;   -5.959;32847.707
687.693;32787.031;  -10.329;32794.027
688.269;32397.201;  -12.059;33072.367
688.844;32908.789;  -10.909;33141.664
689.420;33649.586;   -8.019;33965.742
689.995;30268.818;   -8.399;34655.523
690.571;29695.490;  -10.949;33576.742
691.146;28885.918;   -9.619;32657.219
691.722;26834.701;   -8.999;32526.979
692.297;26168.752;  -11.589;33014.617
692.872;27056.461;  -11.739;34012.254
693.448;27217.684;  -11.059;34237.434
694.023;28915.438;  -10.139;34142.672
694.598;31043.240;   -9.029;34132.031
695.173;30860.443;  -13.319;34205.250
695.748;28390.320;  -10.169;32882.488
696.323;25879.209;   -8.339;32864.906
696.898;25623.547;   -8.169;33170.004
697.473;28816.385;  -12.309;32432.984
698.048;28387.611;  -10.989;31649.303
698.623;27402.326;   -9.329;30778.141
699.198;28988.711;   -9.849;31140.119
699.773;30365.689;  -12.329;31764.299
700.348;30503.967;  -10.389;31780.816
700.922;28649.086;   -9.269;32046.375
701.497;26766.656;   -9.329;32603.574
702.072;28204.854;  -10.789;34799.871
702.646;28068.365;  -10.839;35793.172
703.221;28823.279;   -9.099;35201.590
703.795;29268.867;  -10.939;34764.527
704.370;28035.752;  -12.859;34307.367
704.944;29609.039;  -11.559;33509.887
705.519;30708.418;   -7.939;31388.584
706.093;32508.445;  -10.499;31340.104
706.668;33195.680;  -11.289;32630.281
707.242;32083.713;  -11.509;32728.779
707.816;30638.857;   -9.639;32947.238
708.390;30358.363;  -11.429;33277.855
708.965;31509.078;  -11.869;33834.336
709.539;31459.789;  -11.689;33709.273
710.113;31069.645;  -10.478;33044.313
710.687;28567.340;  -10.228;31953.992
711.261;27953.324;  -13.698;30505.949
711.835;27556.324;  -13.378;30262.369
712.409;26909.012;   -9.698;31254.447
712.983;26024.951;  -11.898;32754.986
713.557;24863.098;  -15.138;34018.824
714.131;26315.348;  -14.098;34579.625
714.704;26569.127;   -9.958;33890.262
715.278;25764.664;  -10.028;33531.102
715.852;24849.652;  -11.148;33601.660
716.425;24634.172;   -9.068;33515.117
716.999;26510.809;  -10.038;33185.555
717.573;27108.320;   -9.798;33905.996
718.146;28018.443;  -12.378;35199.293
718.720;28466.529;  -11.918;35060.551
719.293;27712.707;   -8.088;34973.230
719.867;26954.236;  -10.888;36394.449
720.440;27641.883;  -11.938;36663.008
721.013;29331.549;  -12.818;35102.426
721.587;30818.250;  -10.298;33985.266
722.160;30584.457;  -10.048;33524.965
722.733;28593.900;  -12.108;32987.043
723.306;26662.605;  -10.818;33066.301
723.880;27211.777;   -8.908;33399.500
724.453;26086.500;   -9.878;33468.297
725.026;25726.406;  -11.188;33816.637
725.599;26038.969;  -11.678;32797.996
726.172;25863.818;   -9.618;33187.434
726.745;27010.299;   -8.258;35136.613
727.318;29521.803;  -12.978;35751.730
727.891;31325.621;  -12.148;35890.430
728.463;32814.961;   -8.968;34822.090
729.036;33079.695;  -10.188;32895.086
729.609;30759.670;  -11.788;31823.225
730.182;28702.459;  -11.788;31445.283
730.754;27785.027;  -10.268;32373.223
731.327;27431.246;   -9.998;33676.820
731.900;26479.643;  -12.228;33417.000
732.472;25489.424;  -13.848;31978.498
733.045;25308.939;   -8.698;30368.777
733.617;24465.049;  -10.607;30574.215
734.190;23087.334;  -11.507;31280.975
734.762;23773.361;  -13.647;31674.412
735.334;25305.969;   -9.767;31247.291
735.907;25724.605;   -9.897;29876.211
736.479;23520.086;  -11.637;29808.488
737.051;22659.504;   -9.567;30233.547
737.623;23493.727;   -8.187;31469.086
738.195;25434.334;  -11.187;31784.225
738.768;25921.484;  -12.337;32120.523
739.340;25272.139;  -12.227;32094.342
739.912;24912.771;  -11.057;31312.680
740.484;25697.336;  -10.207;31946.238
741.056;26579.955;  -10.047;32984.059
741.628;26146.240;  -13.627;33897.715
742.199;26674.461;   -7.177;33213.016
742.771;25011.859;  -10.797;31369.113
743.343;23839.650;  -11.997;31865.473
743.915;24092.297;  -12.867;32388.631
744.487;24711.949;   -7.617;31079.568
745.058;25770.268;   -9.557;30570.107
745.630;25431.801;   -9.877;29970.127
746.201;24407.504;  -14.177;29186.766
746.773;24106.549;   -9.237;28805.723
747.344;24244.357;   -9.847;29591.223
747.916;24267.355;  -11.657;31412.201
748.487;23988.109;  -10.587;32194.898
749.059;23980.063;   -8.707;32533.719
749.630;23272.553;  -10.537;32158.518
750.201;23571.264;  -11.687;30855.395
750.773;23690.527;  -11.647;28622.555
751.344;24659.502;   -7.147;28405.732
751.915;24315.918;   -9.757;28461.551
752.486;23903.984;  -12.427;27842.850
753.057;22565.377;  -12.227;27845.008
753.628;22344.711;  -10.417;27728.107
754.199;22482.873;  -11.767;27381.086
754.770;21668.213;  -11.187;25882.203
755.341;20991.410;  -10.507;25886.184
755.912;21215.707;   -9.387;26050.861
756.483;21754.250;  -10.647;26798.779
757.054;21518.273;  -11.837;27048.238
757.625;19770.750;  -12.716;26294.838
758.195;19073.203;   -9.666;26142.076
758.766;19930.072;   -8.656;26392.234
759.337;19791.076;  -12.856;26334.594
759.907;19107.664;  -13.366;27579.652
760.478;18209.430;   -8.576;28352.770
761.048;18976.221;  -10.526;27325.088
761.619;19617.209;  -11.116;26460.428
762.189;19226.016;  -12.136;26029.826
762.760;19246.902;   -9.456;26430.145
763.330;19626.098;   -7.136;26670.902
763.900;19664.459;  -11.786;26603.021
764.471;18880.438;  -11.546;25542.740
765.041;18491.615;   -8.096;24358.459
765.611;18541.186;   -8.876;23991.297
766.181;18544.914;  -12.196;24470.236
766.751;19293.434;  -11.636;24845.975
767.321;19378.020;  -10.156;24533.633
767.891;19201.863;  -11.766;24916.492
768.461;18852.471;  -14.936;24776.771
769.031;18122.693;  -12.356;24757.988
769.601;17961.508;   -7.526;24181.088
770.171;18309.566;  -10.766;23670.387
770.741;18699.758;  -13.176;22960.045
771.311;18308.609;  -10.616;22917.523
771.880;17071.965;   -9.576;23562.941
772.450;16628.316;  -10.336;24216.500
773.020;16869.473;  -13.516;24140.398
773.589;16697.697;  -13.466;24414.857
774.159;16186.051;   -8.686;23858.717
774.729;15609.313;   -9.476;22942.135
775.298;15509.216;  -13.666;22324.033
775.867;15370.352;  -11.716;21140.313
776.437;14801.001;   -9.906;20838.092
777.006;14732.521;  -12.166;20599.510
777.576;16056.399;  -12.356;20508.809
778.145;15411.316;  -11.646;20732.947
778.714;14110.933;   -8.226;21062.465
779.283;13592.703;   -9.556;20949.664
779.853;13457.911;  -14.116;20508.623
780.422;13646.396;  -11.506;20649.082
780.991;14102.352;   -9.556;21527.520
781.560;14790.122;   -9.095;22632.658
782.129;13719.338;  -12.135;23048.277
782.698;12487.071;  -10.865;23438.555
783.267;11943.355;   -9.335;23267.734
783.836;12402.149;  -11.045;22415.133
784.404;13157.189;  -13.865;20443.152
784.973;13375.313;  -13.095;19699.150
785.542;13274.942;  -11.575;19763.828
786.111;13043.746;   -9.705;20341.408
786.679;12826.426;  -12.105;20207.967
787.248;12610.942;  -12.455;19516.465
787.817;12522.874;  -11.535;18900.363
788.385;12370.944;   -9.765;17879.121
788.954;12283.707;  -14.005;17658.301
789.522;12219.872;  -11.955;17788.879
790.090;11408.243;  -10.135;18118.277
790.659;10472.000;  -10.975;18338.736
791.227;10472.850;  -13.375;18508.615
791.795;10831.921;  -12.375;17898.254
792.364;11137.545;  -10.725;17295.133
792.932;11535.723;   -9.715;16822.051
793.500;11257.441;  -12.675;17040.148
794.068;11497.587;  -13.495;17179.787
794.636;11486.654;  -10.885;16664.246
795.204;11182.450;  -11.045;16524.545
795.772;11223.434;  -13.175;17274.564
796.340;10977.728;  -12.445;17891.002
796.908;11208.828;   -9.735;17648.561
797.476;11631.191;   -9.815;17064.080
798.044;11345.904;  -13.985;16672.777
798.612;10840.717;  -13.115;17023.996
799.180; 9964.762;  -10.185;16561.615
799.747; 9703.038;   -9.055;15962.773
800.315; 9889.184;  -12.385;15296.992
800.883; 9164.297;  -15.035;14801.771
801.450; 8435.437;  -10.365;14534.430
802.018; 8131.780;   -9.855;14173.248
802.585; 8025.327;  -11.905;14029.547
803.153; 8168.012;  -11.585;13836.846
803.720; 7941.270;   -9.095;13567.324
804.287; 7905.440;   -9.135;13360.622
804.855; 8089.946;  -11.604;13681.981
805.422; 8477.314;  -11.794;13536.560
805.989; 8661.801;  -10.734;13355.958
806.556; 8563.549;  -10.444;13747.896
807.124; 8926.980;  -12.764;13987.376
807.691; 9389.322;  -12.964;14038.674
808.258; 9339.552;  -11.134;14120.152
808.825; 9241.943;   -9.854;13860.111
809.392; 8802.268;  -10.504;13268.790
809.959; 8112.765;  -13.054;12680.389
810.526; 7421.589;   -8.294;12427.308
811.093; 6735.886;   -8.394;12030.105
811.659; 6516.441;  -12.304;11653.664
812.226; 6671.273;  -13.944;11637.183
812.793; 7022.476;  -10.484;11611.521
813.360; 7146.943;  -10.144;11885.181
813.926; 7163.032;  -11.684;12770.539
814.493; 7052.739;  -13.644;12677.638
815.060; 6898.761;   -9.724;11974.336
815.626; 7067.067;   -9.854;11594.715
816.193; 7081.026;  -13.254;11579.474
816.759; 6437.331;  -13.204;11666.972
817.325; 6035.485;   -9.434;11325.530
817.892; 5897.237;  -10.134;11105.369
818.458; 6033.024;  -13.474;10843.928
819.024; 6479.355;  -11.854;10714.406
819.591; 6577.770;  -10.244;10469.165
820.157; 6323.255;  -10.704;10235.523
820.723; 6245.945;  -12.324;10847.563
821.289; 6126.366;   -9.444;11040.980
821.855; 6227.760;   -8.374;10357.100
822.421; 6553.817;  -10.234; 9978.918
822.987; 6485.711;  -13.294; 9754.177
823.553; 6135.553;  -10.884;10065.755
824.119; 5881.449;   -8.884;10036.294
824.685; 5417.086;   -6.784;10029.192
825.251; 5314.190;  -12.004;10199.230
825.816; 5088.485;  -11.474; 9820.189
826.382; 4929.464;   -9.174; 9297.248
826.948; 5225.952;   -9.214; 9381.347
827.513; 5612.735;  -10.774; 9450.726
828.079; 5696.065;  -11.924; 9472.444
828.645; 5516.943;  -10.543; 9292.643
829.210; 5395.409;  -10.533; 9065.341
829.776; 5296.996;  -10.753; 9132.620
830.341; 5424.915;  -10.173; 9092.878
830.906; 5432.969;  -10.743; 9078.557
831.472; 5207.049;  -11.113; 8534.535
832.037; 4908.886;  -10.603; 8677.874
832.602; 4819.600;  -13.323; 8628.692
833.167; 4637.110;  -10.823; 8879.031
833.733; 4562.106;  -10.113; 9189.790
834.298; 4452.691;  -13.583; 9052.608
834.863; 4644.558;  -12.703; 8895.087
835.428; 4888.632;  -10.523; 8824.266
835.993; 4848.846;   -6.963; 8845.385
836.558; 4830.999;  -10.763; 8888.563
837.123; 4990.534;   -9.903; 8966.582
837.688; 5372.929;   -9.913; 8617.860
838.253; 5423.400;  -10.283; 8590.699
838.817; 5093.200;  -12.963; 8443.797
839.382; 5019.284;  -14.243; 8799.356
839.947; 5203.651;  -10.733; 8810.595
840.511; 5230.454;   -9.383; 8796.394
841.076; 5054.044;  -12.563; 8347.231
841.641; 4888.672;  -12.953; 8224.330
842.205; 4737.799;   -7.043; 8223.349
842.770; 4527.549;   -8.163; 8622.107
843.334; 4685.384;  -12.503; 8410.386
843.898; 4826.386;  -11.693; 8337.465
844.463; 4397.093;  -10.203; 8506.283
845.027; 4086.315;   -9.533; 8280.962
845.591; 4125.566;  -13.443; 8231.141
846.156; 4211.546;  -13.143; 7969.179
846.720; 4038.718;   -9.433; 7768.278
847.284; 3921.699;  -11.033; 7630.957
847.848; 3880.932;  -10.403; 7472.395
848.412; 3709.224;  -11.553; 7437.394
848.976; 3631.835;   -8.393; 7674.592
849.540; 3600.158;   -8.713; 7836.011
850.104; 3587.516;  -12.463; 7913.669
850.668; 3670.753;  -12.973; 7694.508
851.232; 3648.961;  -10.793; 7756.887
851.796; 3672.666;  -10.662; 7926.545
852.359; 3764.493;  -13.082; 7827.844
852.923; 3742.914;  -12.192; 7641.163
853.487; 3739.132;  -11.912; 7342.501
854.050; 3610.332;  -10.892; 7042.820
854.614; 3671.218;  -13.992; 7151.338
855.177; 3709.052;  -11.732; 7105.077
855.741; 3574.522;   -8.962; 6989.675
856.304; 3423.827;   -9.442; 6596.634
856.868; 3280.514;  -14.192; 6356.272
857.431; 3232.058;  -12.702; 6468.571
857.995; 3262.311;   -9.942; 6373.210
858.558; 3352.136;   -9.112; 6324.448
859.121; 3253.626;  -12.932; 6408.327
859.684; 3143.521;  -13.442; 6347.886
860.247; 3108.652;  -10.632; 6321.264
860.810; 3058.884;  -11.272; 6301.903
861.374; 2956.142;   -9.832; 6607.881
861.937; 2836.021;  -11.762; 6408.200
862.500; 2823.203;   -9.722; 6572.639
863.062; 2792.187;  -10.512; 6387.297
863.625; 2775.598;  -11.232; 6190.836
864.188; 2814.831;  -14.112; 5807.254
864.751; 2804.356;  -11.302; 5682.413
865.314; 2672.040;  -10.112; 5547.492
865.876; 2489.638;  -12.182; 5500.150
866.439; 2318.487;  -10.722; 5415.909
867.002; 2206.578;   -9.252; 5501.567
867.564; 2250.190;   -9.572; 5413.946
868.127; 2289.589;  -13.142; 5160.325
868.689; 2379.369;  -12.902; 5133.183
869.252; 2492.507;   -9.732; 5252.382
869.814; 2404.570;   -9.432; 5297.141
870.377; 2298.444;  -11.552; 5390.919
870.939; 2295.555;   -9.052; 5599.898
871.501; 2243.233;  -10.982; 5248.336
872.063; 2140.899;  -12.292; 4854.235
872.626; 2071.379;  -14.912; 4817.074
873.188; 1967.376;  -13.112; 4987.732
873.750; 1941.921;  -13.442; 4868.651
874.312; 1916.547;   -9.402; 4779.330
874.874; 1863.293;  -11.062; 4866.348
875.436; 1732.490;  -13.931; 4718.887
875.998; 1608.994;   -9.561; 4660.005
876.560; 1586.760;  -11.321; 4462.964
877.122; 1634.734;  -12.221; 4145.042
877.683; 1737.684;  -12.191; 4056.481
878.245; 1789.200;  -12.101; 3950.740
878.807; 1843.558;   -8.971; 4058.958
879.369; 1805.450;  -12.071; 3954.677
879.930; 1663.903;  -14.621; 3941.495
880.492; 1568.438;  -10.311; 4067.014
881.053; 1564.516;  -10.901; 3859.633
881.615; 1551.164;  -14.411; 3776.071
882.176; 1493.231;  -13.761; 3734.750
882.738; 1423.249;   -9.181; 3678.489
883.299; 1396.620;  -11.791; 3405.407
883.860; 1396.283;  -13.121; 3351.106
884.422; 1348.538;  -11.211; 3394.044
884.983; 1277.149;  -10.091; 3166.443
885.544; 1239.090;   -8.461; 3189.802
886.105; 1181.859;  -12.361; 3160.360
886.666; 1117.882;  -14.141; 3093.059
887.227; 1086.835;  -11.361; 2941.957
887.788; 1038.613;  -11.401; 2974.836
888.349;  949.867;  -13.791; 2721.214
888.910;  908.174;  -13.191; 2696.493
889.471;  877.767;   -9.881; 2560.172
890.032;  886.051;   -9.881; 2558.190
890.593;  875.795;  -10.371; 2567.669
891.153;  790.755;  -13.301; 2460.307
891.714;  688.674;  -11.431; 2372.046
892.275;  644.497;  -11.291; 2309.505
892.835;  654.796;  -11.471; 2382.543
893.396;  650.255;  -11.541; 2295.502
893.956;  622.754;  -11.181; 2162.420
894.517;  586.182;  -11.741; 2125.439
895.077;  535.218;  -11.671; 2086.978
895.638;  497.495;  -11.311; 2126.316
896.198;  486.380;   -9.831; 1838.275
896.758;  472.951;   -8.421; 1892.813
897.319;  450.097;  -12.351; 1792.232
897.879;  431.474;  -13.511; 1762.751
898.439;  400.848;  -12.001; 1661.149
898.999;  381.920;  -10.180; 1781.468
899.559;  378.220;  -12.030; 1703.347
900.119;  368.585;  -15.710; 1537.525
900.679;  353.005;   -8.900; 1638.384
901.239;  331.575;   -8.340; 1527.902
901.799;  303.966;  -13.910; 1456.441
902.359;  282.105;  -13.460; 1357.140
902.919;  275.192;  -11.490; 1331.118
903.479;  276.730;  -12.110; 1317.257
904.038;  271.342;  -11.720; 1262.595
904.598;  262.370;  -13.610; 1152.034
905.158;  251.630;  -11.040; 1240.893
905.717;  236.755;  -10.900; 1233.691
906.277;  226.715;  -15.080; 1217.330
906.836;  225.217;  -13.380; 1222.408
907.396;  221.246;  -10.780; 1193.047
907.955;  214.119;   -8.500; 1182.526
908.515;  208.885;  -12.760; 1099.364
909.074;  208.152;  -11.900; 1092.863
909.633;  207.053;   -8.950; 1069.121
910.192;  204.998;   -8.770; 1196.460
910.752;  194.148;  -12.390; 1029.960
911.311;  184.432;  -13.680; 1009.780
911.870;  174.987;  -12.370;  971.460
912.429;  170.344;  -10.900; 1094.080
912.988;  166.998;  -11.690; 1081.060
913.547;  164.268;  -13.240;  940.380
914.106;  163.049;  -11.990;  999.420
914.665;  161.802;   -9.990;  984.020
915.224;  159.344;  -12.880; 1035.760
915.782;  156.439;  -12.350;  922.560
916.341;  156.210;   -9.110; 1049.840
916.900;  153.500;   -9.270;  925.260
917.458;  151.699;  -13.240;  884.220
918.017;  150.668;  -13.550;  942.600
918.576;  149.276;  -12.320;  904.440
919.134;  147.391;  -11.490;  837.980
919.693;  146.122;  -13.670;  893.060
920.251;  145.115;  -15.470;  876.500
920.809;  144.225;  -11.290;  839.580
921.368;  143.623;  -10.210;  885.360
921.926;  141.363;  -12.140;  842.940
922.484;  139.152;  -13.080;  903.360
923.042;  138.261;  -11.720;  880.340
923.601;  138.673;   -7.480;  998.680
924.159;  136.460;  -11.570;  935.560
924.717;  134.339;  -13.840;  841.080
925.275;  134.419;  -10.640;  903.240
925.833;  133.208;  -11.540;  779.320
926.391;  135.032;  -12.960;  938.380
926.949;  135.733;  -14.130;  857.680
927.506;  134.381;  -11.750;  903.500
928.064;  134.147;  -10.250;  877.580
928.622;  133.839;  -13.030;  880.100
929.180;  137.005;  -13.400;  814.180
929.737;  138.703;  -10.700;  808.540
930.295;  141.935;  -10.070;  928.480
930.853;  141.119;  -11.960;  849.100
931.410;  142.427;  -13.120;  821.120
931.968;  144.371;  -10.770;  940.660
932.525;  143.944;  -10.680;  909.380
933.082;  143.737;  -13.130;  811.440
933.640;  144.784;  -13.210;  925.900
934.197;  143.955;  -11.060;  886.360
934.754;  143.730;   -9.580;  897.780
935.312;  145.619;  -14.000;  863.340
935.869;  147.301;  -10.710; 1012.980
936.426;  145.337;   -9.860;  872.800
936.983;  145.301;   -9.710;  889.020
937.540;  148.183;  -13.990;  838.280
938.097;  151.463;  -14.040;  940.120
938.654;  155.214;  -10.310;  898.860
939.211;  155.855;  -10.560;  952.480
939.768;  156.122;  -13.900;  915.420
940.324;  158.562;  -14.760;  904.200
940.881;  162.007;  -10.370;  878.500
941.438;  166.681;   -8.260; 1021.200
941.995;  166.049;  -12.540;  992.560
942.551;  165.615;  -14.670;  875.620
943.108;  167.309;  -10.450;  937.920
943.664;  167.823;  -10.750;  869.340
944.221;  171.877;  -11.550; 1088.140
944.777;  171.086;  -14.770;  869.680
945.334;  169.071;  -12.820;  884.840
945.890;  162.790;  -10.130;  946.480
946.446;  158.968;  -13.470;  947.020
947.003;  161.974;  -12.120;  964.940
947.559;  162.622;   -9.980; 1063.040
948.115;  158.219;   -9.080; 1026.540
948.671;  156.144;  -10.830;  967.300
949.227;  155.935;  -12.440;  859.560
949.783;  155.871;  -12.910;  858.900
950.339;  159.923;  -10.270;  991.000
950.895;  160.244;  -13.630; 1023.840
951.451;  160.087;  -15.100;  925.280
952.007;  158.922;  -11.330;  998.540
952.563;  155.177;  -10.580;  937.780
953.118;  153.391;  -13.440;  904.940
953.674;  152.566;  -12.710;  935.780
954.230;  154.408;  -10.350;  949.640
954.785;  158.493;   -9.190;  936.640
955.341;  161.875;  -11.200;  998.160
955.897;  155.513;  -16.560;  834.660
956.452;  154.017;  -12.570;  953.840
957.008;  152.258;   -7.970; 1083.640
957.563;  147.627;  -11.940; 1009.540
958.118;  144.102;  -13.450;  877.700
958.674;  142.243;  -12.030;  946.780
959.229;  143.918;   -9.410; 1013.980
959.784;  143.413;  -12.000;  832.400
960.339;  143.586;  -14.780; 1001.280
960.894;  141.267;   -9.860;  963.760
961.449;  138.588;   -9.970;  859.960
962.004;  138.897;  -10.900; 1212.840
962.559;  137.070;  -13.150;  860.140
963.114;  134.732;  -13.740;  742.480
963.669;  133.329;   -9.820;  915.500
964.224;  130.578;  -13.890;  874.340
964.779;  131.786;  -12.600;  828.420
965.334;  133.943;  -10.950; 1017.860
965.888;  134.887;  -11.170;  875.360
966.443;  134.194;  -12.540;  972.380
966.998;  126.671;  -15.780;  819.460
967.552;  115.572;   -9.760;  908.380
968.107;  103.444;   -9.060;  868.300
968.661;   96.527;  -11.950;  922.440
969.216;   93.768;  -12.800;  856.280
969.770;   94.727;  -11.210;  917.200
970.324;   98.402;  -11.610;  923.140
970.879;  101.980;  -11.370;  947.180
971.433;  105.280;  -12.540;  952.720
971.987;  105.926;  -11.320;  895.340
972.541;  104.570;  -10.720;  917.100
973.095;  105.496;   -9.680; 1009.460
973.649;  102.912;  -11.440;  809.480
974.203;  103.042;  -11.210;  829.040
974.757;  102.562;  -10.240;  855.220
975.311;  102.861;  -13.720;  872.600
975.865;  103.027;  -13.770;  881.820
976.419;  100.843;  -11.690;  857.400
976.973;   98.377;   -9.510;  849.620
977.526;   97.953;  -12.620;  949.920
978.080;   96.098;  -12.010;  796.780
978.634;   96.395;  -10.170;  921.320
979.187;   95.845;   -9.020;  905.400
979.741;   97.180;   -9.820; 1018.380
980.294;   95.933;  -14.870;  789.160
980.848;   94.785;  -12.380;  717.220
981.401;   94.825;  -10.350;  816.540
981.955;   93.708;  -13.720;  844.300
982.508;   89.420;  -11.490;  746.340
983.061;   89.291;  -10.000;  915.260
983.615;   87.664;  -11.480;  798.800
984.168;   86.409;  -13.220;  770.080
984.721;   85.779;  -13.960;  880.760
985.274;   83.817;  -10.870;  867.500
985.827;   81.703;   -9.790;  834.220
986.380;   79.471;  -13.120;  721.340
986.933;   79.377;  -12.450;  864.800
987.486;   78.216;  -10.210;  861.920
988.039;   78.904;   -8.430;  863.100
988.591;   77.730;  -10.520;  893.260
989.144;   75.589;  -14.860;  737.260
989.697;   74.077;  -13.080;  758.740
990.250;   73.786;  -10.150;  858.100
990.802;   71.699;  -13.430;  755.860
991.355;   71.433;  -12.750;  974.880
991.907;   69.775;  -12.040;  864.320
992.460;   68.117;  -11.330;  753.760
993.012;   67.893;  -13.610;  749.540
993.565;   65.460;  -13.460;  711.360
994.117;   65.940;   -9.360;  950.780
994.669;   63.450;  -11.300;  701.320
995.221;   62.159;  -13.540;  791.920
995.774;   61.819;  -13.430;  787.580
996.326;   59.682;  -12.520;  740.220
996.878;   60.031;  -10.950;  838.420
997.430;   57.104;  -14.300;  699.860
997.982;   55.733;  -13.760;  750.140
998.534;   56.345;  -11.530;  739.060
999.086;   54.867;  -10.310;  738.220
999.638;   53.628;  -12.530;  661.380
1000.190;   52.448;  -11.840;  699.320
1000.741;   52.404;  -10.260;  742.700
1001.293;   51.826;   -8.860;  686.020
1001.845;   51.160;  -13.700;  676.640
1002.396;   50.879;  -12.100;  743.400
1002.948;   49.645;  -12.760;  737.400
1003.500;   47.767;  -10.380;  723.780
1004.051;   48.130;  -11.900;  907.580
1004.603;   46.373;  -12.250;  791.820
1005.154;   42.109;  -13.210;  608.980
1005.705;   41.770;  -10.950;  723.960
1006.257;   41.580;  -13.880;  707.220
1006.808;   41.446;  -12.840;  685.460
1007.359;   40.764;  -10.570;  763.240
1007.910;   40.310;   -9.620;  646.640
1008.461;   39.731;  -13.630;  732.940
1009.013;   38.269;  -17.200;  588.340
1009.564;   39.548;  -10.200;  793.520
1010.115;   38.380;  -12.570;  597.040
1010.665;   37.567;  -15.150;  602.160
1011.216;   37.784;  -14.480;  667.920
1011.767;   37.694;  -11.340;  697.920
1012.318;   37.658;   -9.780;  736.980
1012.869;   36.512;  -12.380;  679.000
1013.419;   35.999;  -15.560;  603.120
1013.970;   36.433;  -11.010;  666.640
1014.521;   36.286;  -11.610;  620.620
1015.071;   36.346;  -13.450;  670.380
1015.622;   35.708;  -13.870;  635.460
1016.172;   35.110;  -11.610;  596.820
1016.723;   34.751;  -12.120;  614.380
1017.273;   34.069;  -13.620;  604.160
1017.823;   34.421;  -14.140;  650.340
1018.374;   34.178;  -12.800;  611.760
1018.924;   33.906;  -12.340;  716.880
1019.474;   34.183;  -11.410;  718.880
1020.024;   32.207;  -14.770;  657.580
1020.574;   33.832;   -9.780;  726.160
1021.124;   33.652;   -8.560;  673.580
1021.674;   32.143;  -15.190;  559.120
1022.224;   33.516;  -13.530;  708.940
1022.774;   32.859;  -13.280;  668.820
1023.324;   33.501;  -10.690;  753.520
1023.874;   34.167;  -10.240;  875.760
1024.423;   31.938;  -12.540;  613.700
1024.973;   30.891;  -10.010;  610.760
1025.523;   31.042;  -10.550;  620.960
1026.072;   30.144;  -13.560;  606.420
1026.622;   29.843;  -15.120;  675.740
1027.172;   31.526;  -11.260;  715.660
1027.721;   29.748;  -11.410;  601.220
1028.270;   30.483;  -13.530;  663.400
1028.820;   30.518;  -13.680;  638.080
1029.369;   29.980;  -13.520;  612.700
1029.918;   29.436;  -10.980;  649.840
1030.468;   29.228;  -13.530;  564.780
1031.017;   29.392;  -13.170;  634.800
1031.566;   28.719;  -12.200;  608.900
1032.115;   29.118;   -9.960;  694.500
1032.664;   27.935;  -13.210;  596.480
1033.213;   29.086;  -12.500;  735.420
1033.762;   27.893;  -11.910;  635.620
1034.311;   27.885;   -9.640;  677.220
1034.860;   27.680;  -13.310;  691.000
1035.408;   28.307;  -11.830;  722.720
1035.957;   28.172;  -12.000;  719.540
1036.506;   25.810;  -11.690;  530.800
1037.055;   28.561;  -10.990;  844.320
1037.603;   26.712;  -15.120;  664.000
1038.152;   25.425;  -12.450;  534.760
1038.700;   25.905;  -10.560;  585.740
1039.249;   25.537;  -11.080;  681.220
1039.797;   25.945;  -12.540;  633.360
1040.345;   25.975;  -11.920;  705.420
1040.894;   25.523;  -11.410;  625.300
1041.442;   25.409;  -14.320;  632.200
1041.990;   24.578;  -16.240;  559.160
1042.538;   24.591;  -11.680;  536.180
1043.087;   24.435;  -10.760;  570.860
1043.635;   25.218;  -11.850;  670.500
1044.183;   24.609;  -15.480;  586.400
1044.731;   23.734;  -11.770;  576.000
1045.279;   23.958;  -13.090;  674.920
1045.827;   25.908;  -12.440;  892.400
1046.374;   23.399;  -13.840;  515.420
1046.922;   22.687;  -13.220;  590.580
1047.470;   23.685;  -10.230;  691.300
1048.018;   24.036;  -14.590;  647.960
1048.565;   24.329;  -12.050;  708.600
1049.113;   22.633;  -11.650;  557.000
1049.660;   21.745;  -10.510;  629.660
1050.208;   22.496;  -13.310;  675.640
1050.755;   21.987;  -15.900;  606.580
1051.303;   22.668;  -11.430;  686.820
1051.850;   22.207;   -8.480;  635.120
1052.397;   20.453;  -15.010;  473.960
1052.945;   20.635;  -13.960;  617.760
1053.492;   22.535;  -13.150;  741.840
1054.039;   22.410;   -9.630;  720.180
1054.586;   21.103;  -13.680;  557.240
1055.133;   21.991;  -14.570;  693.140
1055.680;   22.415;  -13.820;  646.620
1056.227;   20.945;  -11.730;  542.780
1056.774;   21.828;  -12.480;  794.980
1057.321;   20.191;  -13.930;  523.260
1057.868;   20.752;  -11.690;  651.320
1058.415;   20.082;   -9.520;  651.980
1058.961;   20.904;  -13.160;  678.940
1059.508;   20.272;  -12.920;  643.820
1060.055;   19.912;  -11.920;  581.780
1060.601;   20.269;  -11.500;  624.300
1061.148;   19.391;  -14.330;  616.820
1061.694;   18.968;  -16.870;  592.580
1062.241;   19.732;  -10.330;  596.320
1062.787;   19.995;  -10.620;  663.140
1063.334;   20.426;  -10.110;  808.560
1063.880;   19.552;  -13.400;  668.360
1064.426;   20.189;  -10.680;  706.820
1064.972;   18.566;   -9.920;  601.340
1065.518;   16.709;  -10.980;  566.640
1066.065;   18.740;  -14.890;  624.460
1066.611;   18.329;  -12.870;  598.800
1067.157;   18.253;  -12.950;  641.860
1067.703;   18.076;  -13.540;  668.480
1068.249;   18.079;  -13.540;  605.220
1068.794;   18.058;  -12.600;  626.880
1069.340;   17.175;  -10.620;  578.960
1069.886;   16.902;  -12.830;  590.700
1070.432;   16.447;  -14.870;  541.720
1070.977;   16.820;  -11.980;  601.080
1071.523;   17.403;   -8.200;  573.060
1072.068;   16.817;  -12.330;  582.000
1072.614;   16.896;  -16.370;  527.760
1073.160;   17.014;  -11.100;  687.040
1073.705;   15.985;  -10.480;  572.520
1074.250;   15.018;  -14.520;  559.900
1074.796;   16.813;  -11.460;  655.160
1075.341;   16.747;  -11.950;  664.100
1075.886;   16.015;  -11.460;  594.240
1076.431;   14.813;  -13.770;  649.880
1076.976;   15.197;  -12.680;  639.220
1077.521;   15.408;  -13.170;  583.080
1078.067;   14.802;  -10.860;  579.400
1078.612;   15.388;  -13.920;  661.620
1079.156;   14.945;  -13.880;  601.540
1079.701;   15.187;  -13.120;  693.260
1080.246;   15.759;   -9.940;  696.300
1080.791;   14.854;  -14.740;  625.020
1081.336;   15.298;  -13.750;  659.320
1081.880;   15.056;  -13.400;  649.680
1082.425;   14.366;  -12.220;  573.480
1082.970;   15.342;  -11.610;  717.040
1083.514;   14.490;  -13.580;  597.000
1084.059;   13.689;  -12.810;  586.720
1084.603;   13.259;  -12.320;  565.840
1085.147;   13.654;  -13.190;  645.220
1085.692;   14.325;  -12.480;  716.800
1086.236;   12.927;  -13.020;  503.140
1086.780;   14.746;   -9.190;  751.440
1087.325;   13.313;  -12.480;  654.620
1087.869;   13.278;  -12.450;  610.700
1088.413;   14.501;  -12.240;  705.040
1088.957;   11.801;   -9.020;  543.400
1089.501;   13.754;  -10.320;  766.640
1090.045;   12.738;  -12.720;  726.480
1090.589;   11.416;  -13.690;  569.920
1091.133;   13.052;  -10.020;  673.340
1091.676;   13.012;  -12.330;  591.940
1092.220;   12.640;  -14.970;  600.920
1092.764;   13.022;  -12.430;  706.960
1093.307;   12.006;   -9.800;  673.780
1093.851;   11.038;  -14.970;  556.540
1094.395;   12.299;  -15.310;  683.140
1094.938;   11.541;  -10.370;  632.520
1095.482;   11.225;  -11.050;  559.800
1096.025;   11.098;  -11.840;  710.880
1096.568;   11.892;  -12.840;  779.280
1097.112;   10.669;  -14.700;  508.180
1097.655;   11.991;   -8.720;  603.000
1098.198;    9.975;  -13.610;  600.180
1098.741;   10.015;  -13.350;  612.860
1099.285;   11.555;  -11.230;  657.300
1099.828;    9.370;  -11.840;  439.400
1100.371;    9.972;  -10.840;  608.160
1100.914;   10.403;  -14.190;  682.660
1101.457;   10.153;  -11.240;  679.900
1101.999;    9.916;  -11.270;  584.680
1102.542;   10.522;  -11.480;  641.440
1103.085;   10.165;  -11.750;  658.500
1103.628;   10.701;  -11.400;  762.060
1104.170;    9.111;  -10.490;  588.280
1104.713;    9.721;  -10.600;  646.700
1105.256;    9.277;  -14.360;  557.440
1105.798;    8.319;  -13.210;  499.980
1106.341;   10.314;  -10.270;  728.900
1106.883;    8.832;  -12.200;  521.340
1107.425;    8.628;  -13.110;  668.180
1107.968;    8.332;  -12.840;  612.380
1108.510;    9.462;   -6.480;  684.960
1109.052;    7.405;  -13.940;  612.620
1109.594;    8.318;  -13.690;  554.440
1110.136;    8.680;  -11.880;  643.220
1110.679;    7.607;   -9.500;  633.080
1111.221;    8.665;  -14.160;  604.460
1111.763;    7.564;  -13.980;  559.220
1112.304;    7.224;  -13.880;  547.140
1112.846;    8.465;  -12.210;  666.240
1113.388;   10.266;  -11.390;  942.180
1113.930;    7.661;  -14.540;  694.200
1114.472;    7.490;  -12.640;  606.540
1115.013;    6.053;  -11.620;  551.280
1115.555;    6.660;  -13.640;  587.100
1116.097;    5.736;  -15.380;  579.480
1116.638;    7.129;  -12.640;  684.600
1117.180;    7.217;   -9.850;  667.740
1117.721;    7.181;  -13.690;  568.580
1118.262;    7.720;  -12.680;  677.960
1118.804;    7.300;  -12.530;  637.340
1119.345;    6.198;  -11.690;  578.400
1119.886;    7.935;  -13.380;  704.040
1120.427;    6.171;  -14.070;  589.020
1120.969;    5.534;  -13.500;  597.920
1121.510;    5.355;  -11.480;  563.060
1122.051;    5.963;  -12.830;  723.580
1122.592;    5.415;  -14.290;  655.420
1123.133;    4.722;  -12.400;  547.940
1123.673;    6.435;  -10.130;  706.480
1124.214;    5.394;  -12.930;  612.460
1124.755;    5.527;  -14.380;  639.460
1125.296;    6.393;  -14.000;  627.320
1125.836;    6.000;  -10.070;  691.500
1126.377;    5.068;  -12.640;  599.660
1126.918;    5.766;  -12.960;  614.980
1127.458;    5.202;  -13.350;  622.220
1127.999;    5.351;  -10.750;  656.980
1128.539;    5.391;  -12.350;  694.240
1129.079;    4.588;  -14.860;  632.720
1129.620;    4.408;  -13.840;  558.100
1130.160;    4.244;  -12.330;  539.480
1130.700;    4.958;  -14.530;  640.840
1131.240;    5.416;  -12.530;  643.700
1131.781;    4.236;  -14.450;  619.680
1132.321;    4.512;   -9.790;  599.120
1132.861;    3.165;  -14.860;  564.200
1133.401;    3.035;  -14.290;  593.940
1133.941;    4.689;  -11.750;  626.280
1134.481;    3.572;   -9.920;  597.580
1135.020;    3.202;  -12.290;  609.160
1135.560;    3.475;  -11.650;  674.940
1136.100;    3.158;  -16.270;  501.160
1136.640;    3.192;  -10.890;  510.480
1137.179;    3.109;  -14.180;  537.960
1137.719;    3.743;  -16.250;  605.400
1138.258;    2.306;  -14.230;  587.360
1138.798;    4.142;   -9.090;  663.780
1139.337;    2.033;  -15.130;  482.840
1139.877;    3.114;  -13.680;  642.360
1140.416;    4.510;  -11.320;  878.060
1140.955;    2.063;  -10.860;  535.380
1141.494;    2.914;  -12.920;  669.280
1142.034;    2.500;  -13.930;  583.520
1142.573;    3.949;  -11.440;  646.280
1143.112;    2.169;  -12.000;  553.480
1143.651;    2.249;  -13.670;  536.480
1144.190;    2.395;  -12.730;  691.640
1144.729;    2.342;  -14.560;  607.420
1145.267;    1.812;  -11.830;  584.900
1145.806;    2.412;  -12.230;  637.040
1146.345;    1.358;  -14.130;  635.020
1146.884;    1.996;  -11.590;  622.500
1147.422;    1.573;  -12.550;  533.060
1147.961;    3.193;  -11.180;  708.460
1148.500;    2.683;  -11.510;  669.720
1149.038;    2.109;  -11.640;  632.500
1149.577;    2.384;  -10.130;  698.640
1150.115;   -0.181;  -13.970;  452.280
1150.653;    1.172;  -14.520;  607.340
1151.192;    1.779;  -12.810;  552.920
1151.730;    1.873;   -9.100;  652.560
1152.268;    1.111;  -12.220;  589.520
1152.806;    1.295;  -14.140;  571.180
1153.344;    0.189;  -12.350;  577.640
1153.882;    1.317;   -8.980;  600.060
1154.421;   -0.141;  -15.190;  470.620
1154.958;    0.896;  -15.210;  595.240
1155.496;    1.416;  -12.850;  645.280
1156.034;    1.275;   -9.940;  721.880
1156.572;    1.346;  -13.570;  667.060
1157.110;    0.038;  -14.590;  473.940
1157.647;    0.348;  -13.030;  676.960
1158.185;   -0.019;  -12.140;  564.320
1158.723;   -1.327;  -14.390;  509.200
1159.260;    0.630;  -14.090;  701.700
1159.798;    0.126;  -11.920;  658.160
1160.335;    0.106;  -11.110;  631.820

