
Integration time [ms]:   3.276
Averaging Nr. [scans]: 1000
Smoothing Nr. [pixels]: 0
Data measured with spectrometer [name]: 7414430SP
Wave   ;Sample   ;Dark     ;Reference
[nm]   ;[counts] ;[counts] ;[counts] 

288.544;  159.420;    7.793;  793.890
289.143;  162.865;    7.462;  681.602
289.742;  162.189;    8.602;  828.814
290.341;  149.273;    1.321;  789.841
290.940;  140.954;   -0.709;  730.702
291.538;  142.815;    0.881;  881.108
292.137;  142.319;    0.122;  792.581
292.736;  143.594;   -1.929;  975.101
293.335;  140.297;   -8.229;  735.086
293.934;  141.922;   -5.279;  781.677
294.532;  141.690;   -1.369; 1031.958
295.131;  129.935;   -7.641;  834.394
295.730;  129.221;   -8.420;  809.588
296.328;  126.940;   -5.611;  783.442
296.927;  125.439;   -5.781;  779.652
297.525;  126.333;   -6.361;  781.236
298.124;  117.605;  -11.382;  654.009
298.722;  123.521;   -7.641;  761.933
299.321;  119.577;   -6.811;  708.597
299.919;  116.294;   -6.991;  751.918
300.518;  112.062;  -10.362;  689.338
301.116;  114.748;   -9.581;  691.381
301.715;  116.656;   -4.891;  730.222
302.313;  114.057;   -8.801;  704.943
302.911;  108.771;   -8.522;  733.830
303.509;  113.451;   -6.171;  925.627
304.108;  112.744;   -7.311;  760.383
304.706;  111.812;   -8.321;  801.664
305.304;  106.846;  -10.222;  796.707
305.902;  110.396;   -6.021;  784.484
306.500;  105.836;   -4.971;  728.200
307.098;  105.975;   -7.061;  746.560
307.696;  104.301;   -8.801;  780.432
308.294;  102.973;   -6.411;  731.359
308.892;  105.779;   -2.901;  759.769
309.490;  102.018;   -5.041;  712.161
310.088;  100.395;   -5.002;  788.444
310.686;  103.234;   -2.041;  821.749
311.284;   99.168;   -2.351;  766.040
311.882;   98.224;   -4.422;  731.225
312.480;   94.513;   -4.192;  697.167
313.078;   95.718;   -1.172;  808.331
313.675;   96.282;   -2.601;  691.600
314.273;   91.515;   -1.312;  797.837
314.871;   91.092;   -3.942;  589.829
315.468;   88.848;   -2.802;  652.090
316.066;   91.957;   -0.701;  694.427
316.664;   84.483;   -4.362;  656.351
317.261;   89.052;   -2.872;  910.128
317.859;   84.015;   -2.022;  768.735
318.456;   85.059;   -0.531;  830.096
319.054;   81.152;   -3.912;  787.828
319.651;   78.902;   -4.752;  759.928
320.249;   77.062;   -2.602;  810.188
320.846;   75.454;   -0.821;  714.286
321.443;   73.707;   -4.642;  832.135
322.041;   70.285;   -5.002;  812.315
322.638;   67.992;   -3.982;  701.456
323.235;   69.216;   -3.411;  665.683
323.833;   65.121;   -7.361;  740.354
324.430;   61.198;   -8.611;  615.900
325.027;   62.152;   -4.061;  876.855
325.624;   61.772;   -4.031;  644.532
326.221;   59.139;   -7.481;  689.717
326.818;   58.100;   -5.281;  818.332
327.415;   60.652;   -7.460;  748.828
328.012;   60.909;   -5.510;  690.585
328.609;   58.158;   -7.880;  731.389
329.206;   57.805;   -8.331;  778.621
329.803;   58.389;   -5.121;  737.841
330.400;   60.138;   -4.510;  704.260
330.997;   61.470;   -6.441;  817.147
331.594;   59.668;   -8.831;  788.185
332.191;   64.712;   -7.621;  728.722
332.787;   68.134;   -4.591;  844.463
333.384;   67.387;   -7.412;  763.093
333.981;   65.640;   -8.293;  815.687
334.578;   68.956;   -7.052;  708.378
335.174;   71.462;   -3.102;  731.469
335.771;   71.367;   -5.943;  836.456
336.367;   68.398;   -7.393;  710.631
336.964;   72.183;   -4.063;  793.266
337.561;   71.252;   -3.813;  731.112
338.157;   66.794;   -4.654;  911.916
338.754;   64.074;   -7.934;  796.589
339.350;   63.816;   -4.414;  722.493
339.946;   65.443;   -4.664;  773.135
340.543;   55.522;   -6.375;  846.136
341.139;   50.573;   -9.815;  720.836
341.735;   48.197;   -4.526;  772.593
342.332;   48.175;   -4.895;  691.472
342.928;   47.086;   -4.295;  795.394
343.524;   41.244;   -5.476;  761.684
344.120;   37.439;   -5.856;  738.562
344.716;   39.977;   -2.155;  723.717
345.313;   36.831;   -6.275;  795.342
345.909;   33.318;   -8.815;  627.336
346.505;   34.059;   -5.305;  740.247
347.101;   33.989;   -2.674;  827.864
347.697;   34.117;   -4.344;  785.398
348.293;   29.303;   -9.975;  627.244
348.889;   29.937;   -5.774;  745.914
349.485;   29.000;   -5.004;  688.205
350.081;   30.094;   -4.704;  772.592
350.676;   25.136;   -6.635;  691.606
351.272;   29.706;   -4.504;  809.530
351.868;   29.337;   -3.914;  780.497
352.464;   26.298;   -9.044;  723.932
353.059;   22.175;   -8.314;  646.017
353.655;   26.085;   -7.024;  777.063
354.251;   27.127;   -5.343;  759.845
354.846;   20.944;   -8.604;  740.646
355.442;   19.821;   -6.945;  753.071
356.038;   21.392;   -7.564;  751.708
356.633;   20.931;   -5.814;  728.594
357.229;   18.669;   -7.364;  724.757
357.824;   17.700;   -8.024;  703.600
358.420;   17.580;   -9.384;  679.726
359.015;   16.504;   -5.104;  695.357
359.610;   17.417;   -6.854;  763.920
360.206;   11.343;  -10.185;  603.240
360.801;   15.251;   -7.054;  646.503
361.396;   17.177;   -5.034;  725.975
361.992;   12.079;   -8.284;  668.220
362.587;    9.600;   -8.625;  670.160
363.182;   12.406;   -7.674;  689.631
363.777;   12.177;   -5.164;  738.242
364.372;   11.730;   -8.604;  737.314
364.967;    7.674;   -9.055;  680.744
365.563;   12.330;   -6.114;  815.567
366.158;    9.217;   -5.814;  685.161
366.753;    9.449;   -7.854;  649.263
367.348;    7.646;   -7.804;  746.056
367.942;    8.010;   -7.954;  697.298
368.537;    6.857;   -4.984;  754.245
369.132;    7.700;   -8.564;  703.428
369.727;    3.760;   -8.855;  638.079
370.322;    4.108;   -6.245;  580.186
370.917;    3.494;   -6.425;  710.646
371.511;    6.853;   -6.294;  861.834
372.106;    3.075;   -7.685;  776.964
372.701;    0.034;   -7.335;  585.988
373.296;    5.849;   -4.564;  863.135
373.890;    0.868;  -10.235;  647.840
374.485;   -0.609;   -7.885;  691.199
375.079;    2.844;   -7.324;  738.685
375.674;    4.252;   -3.494;  812.970
376.268;   -0.448;   -8.525;  691.759
376.863;   -5.362;  -10.086;  580.327
377.457;    0.517;   -7.025;  662.490
378.052;   -1.528;   -3.585;  764.884
378.646;   -2.789;   -7.595;  741.167
379.240;   -2.869;   -8.335;  721.176
379.835;   -1.505;   -5.785;  636.978
380.429;   -3.182;   -4.335;  562.557
381.023;   -4.723;   -6.805;  779.205
381.617;   -6.186;   -9.195;  680.106
382.212;   -2.483;   -6.905;  685.303
382.806;   -2.300;   -3.745;  760.690
383.400;   -6.329;   -7.745;  672.281
383.994;   -7.288;   -9.765;  664.870
384.588;   -3.753;   -6.564;  697.701
385.182;   -2.658;   -5.344;  726.624
385.776;   -4.665;   -8.514;  706.875
386.370;   -6.849;   -9.555;  681.968
386.964;   -5.518;   -8.715;  684.155
387.558;   -4.341;   -6.174;  598.360
388.152;   -8.057;   -8.725;  681.959
388.745;   -6.147;   -7.965;  814.707
389.339;   -4.499;   -5.924;  747.642
389.933;   -2.789;   -5.524;  695.370
390.527;   -4.948;   -7.114;  859.029
391.120;  -10.578;  -10.725;  595.318
391.714;   -7.073;   -8.035;  711.633
392.308;   -5.389;   -3.574;  780.253
392.901;   -8.683;   -7.245;  642.460
393.495;   -9.939;   -9.285;  595.414
394.089;   -7.042;   -5.895;  760.452
394.682;   -7.957;   -4.295;  697.188
395.275;   -8.718;   -9.875;  719.927
395.869;  -10.262;   -8.485;  667.314
396.462;   -7.804;   -7.455;  616.609
397.056;   -4.225;   -5.424;  776.621
397.649;   -9.880;   -6.605;  731.575
398.242;   -7.524;   -8.224;  712.645
398.836;   -6.276;   -7.474;  766.408
399.429;   -6.689;   -7.094;  631.041
400.022;  -11.185;   -9.475;  665.902
400.615;   -7.881;   -7.145;  805.609
401.208;   -6.209;   -7.174;  691.451
401.802;   -8.650;   -5.515;  699.329
402.395;   -9.227;   -9.875;  683.502
402.988;  -10.442;   -8.845;  696.627
403.581;   -6.345;   -8.874;  646.878
404.174;   -4.901;   -5.324;  686.568
404.767;   -7.524;   -9.575;  638.583
405.360;  -10.066;  -10.965;  621.445
405.953;   -4.709;   -8.764;  759.034
406.545;   -4.650;   -7.514;  725.342
407.138;   -8.811;  -10.025;  618.350
407.731;   -7.070;  -10.034;  613.303
408.324;   -3.889;   -9.374;  660.554
408.917;   -4.160;   -6.534;  681.864
409.509;   -6.346;   -8.004;  740.396
410.102;   -7.880;   -9.875;  643.948
410.695;   -1.312;   -8.604;  665.758
411.287;   -3.007;   -6.794;  599.821
411.880;   -4.551;   -9.334;  585.421
412.472;   -7.637;  -10.254;  613.092
413.065;   -4.626;   -6.714;  629.408
413.657;   -2.095;   -7.234;  576.678
414.250;   -2.479;  -10.544;  646.681
414.842;   -3.246;   -9.744;  676.353
415.434;   -0.780;   -6.994;  570.463
416.027;    2.252;   -5.893;  652.196
416.619;   -0.672;   -7.264;  713.400
417.211;    0.043;  -10.374;  599.352
417.804;    3.675;   -7.993;  628.499
418.396;   -0.366;   -7.234;  607.643
418.988;    1.645;   -9.443;  659.238
419.580;   -1.487;  -10.724;  568.276
420.172;    0.323;  -10.323;  536.196
420.764;    4.601;   -8.793;  672.482
421.356;    3.398;  -11.143;  636.898
421.948;    2.514;   -8.293;  677.661
422.540;    8.167;   -7.893;  680.027
423.132;    6.446;   -7.082;  600.641
423.724;    3.568;   -8.653;  561.267
424.316;    5.614;  -10.213;  621.345
424.908;    9.677;   -9.762;  591.517
425.500;    9.980;   -5.572;  647.978
426.092;   10.150;   -8.422;  648.268
426.683;    8.953;   -9.283;  684.836
427.275;   11.762;   -7.852;  641.471
427.867;   13.796;   -5.272;  668.948
428.458;   14.162;   -7.682;  732.344
429.050;   12.501;  -10.612;  680.749
429.642;   14.957;   -9.882;  743.124
430.233;   15.776;   -6.962;  569.356
430.825;   16.867;   -6.842;  724.809
431.416;   14.549;   -9.672;  698.241
432.008;   17.593;   -6.552;  651.723
432.599;   17.772;   -6.891;  656.073
433.190;   15.604;  -10.912;  637.670
433.782;   15.246;  -11.172;  590.395
434.373;   22.319;   -6.061;  884.765
434.964;   20.801;   -8.251;  602.920
435.556;   18.329;   -9.722;  634.537
436.147;   21.180;   -9.082;  758.490
436.738;   22.093;   -8.041;  701.099
437.329;   26.951;   -7.341;  721.723
437.920;   19.841;   -8.162;  666.688
438.511;   20.272;  -11.802;  564.526
439.103;   26.753;  -10.191;  623.998
439.694;   28.095;   -7.601;  681.583
440.285;   28.875;   -8.541;  764.432
440.876;   27.336;   -9.751;  845.738
441.466;   27.179;   -9.401;  575.162
442.057;   31.573;   -7.760;  665.814
442.648;   30.243;   -9.971;  746.255
443.239;   29.421;  -11.001;  620.477
443.830;   34.586;   -7.990;  704.958
444.421;   36.588;   -7.910;  655.474
445.011;   32.823;   -8.131;  693.619
445.602;   32.623;   -7.111;  743.126
446.193;   34.743;  -10.920;  488.117
446.783;   38.442;   -6.500;  640.397
447.374;   33.680;   -8.671;  692.759
447.964;   34.664;  -10.781;  713.770
448.555;   43.192;   -9.650;  822.742
449.145;   40.105;   -8.660;  662.853
449.736;   40.653;   -8.990;  803.179
450.326;   40.372;   -9.500;  713.626
450.917;   45.238;   -8.680;  675.324
451.507;   45.032;   -7.520;  600.661
452.097;   45.145;   -8.590;  746.267
452.688;   47.129;  -11.340;  742.160
453.278;   47.138;  -10.100;  566.840
453.868;   51.338;   -6.019;  793.550
454.458;   48.601;   -9.440;  651.141
455.048;   49.175;  -10.560;  711.783
455.639;   51.286;  -11.799;  567.096
456.229;   54.324;   -6.899;  710.694
456.819;   56.016;   -7.389;  751.158
457.409;   56.611;  -11.119;  773.993
457.999;   59.755;   -9.289;  737.505
458.589;   59.418;   -6.139;  686.606
459.179;   58.600;   -8.729;  717.658
459.769;   57.749;   -9.789;  627.099
460.358;   62.557;  -10.259;  797.262
460.948;   62.113;   -7.299;  689.503
461.538;   63.036;  -10.289;  660.677
462.128;   62.081;  -11.269;  664.934
462.717;   68.627;   -9.368;  710.326
463.307;   72.052;   -7.908;  705.846
463.897;   67.540;   -9.599;  656.942
464.486;   67.547;   -9.769;  837.128
465.076;   72.699;   -8.048;  733.776
465.666;   74.632;   -9.358;  652.900
466.255;   72.591;   -7.919;  785.651
466.845;   70.938;  -11.689;  666.749
467.434;   75.768;   -7.818;  725.873
468.023;   76.258;   -7.678;  658.357
468.613;   73.876;  -10.939;  713.946
469.202;   78.577;  -10.118;  646.507
469.791;   82.152;   -9.108;  737.811
470.381;   85.417;   -6.058;  742.813
470.970;   84.358;  -10.428;  711.099
471.559;   83.811;  -10.268;  733.291
472.148;   88.068;   -8.448;  675.737
472.738;   89.727;   -6.917;  765.466
473.327;   89.393;  -11.978;  637.529
473.916;   89.518;  -11.888;  737.446
474.505;   93.783;   -9.437;  751.703
475.094;   96.801;   -6.747;  806.570
475.683;   95.891;   -9.367;  797.699
476.272;   97.607;  -12.637;  730.632
476.861;  100.607;  -10.027;  706.754
477.449;  107.225;   -8.716;  728.487
478.038;  100.613;   -9.577;  692.513
478.627;  103.071;   -9.718;  714.852
479.216;  109.702;   -8.947;  769.441
479.805;  112.582;   -6.256;  783.375
480.393;  111.888;   -7.937; 1008.945
480.982;  111.535;   -7.717;  874.501
481.571;  117.519;   -9.266;  858.333
482.159;  117.958;   -7.636;  705.386
482.748;  118.120;   -9.667;  821.385
483.336;  123.037;  -10.376;  858.209
483.925;  124.476;   -7.147;  774.373
484.513;  130.897;   -7.996;  758.962
485.102;  127.408;  -10.027;  810.965
485.690;  136.333;  -10.446; 1011.050
486.278;  138.410;   -8.446;  979.329
486.867;  139.290;   -6.356;  809.662
487.455;  140.929;   -9.136;  898.229
488.043;  143.920;  -10.646;  748.361
488.631;  152.883;   -7.456; 1005.079
489.220;  157.256;   -6.636;  908.626
489.808;  157.370;  -11.036;  741.415
490.396;  165.869;  -10.246;  914.645
490.984;  172.589;   -8.556;  830.161
491.572;  185.485;   -5.886;  940.315
492.160;  192.114;   -9.486;  919.081
492.748;  204.714;  -10.976;  884.341
493.336;  229.699;   -8.776; 1019.693
493.924;  256.056;   -5.465;  958.077
494.512;  287.973;   -9.986; 1066.638
495.100;  335.095;  -10.636; 1103.280
495.687;  393.550;  -10.885; 1206.373
496.275;  460.974;   -8.126; 1150.796
496.863;  553.984;  -10.586; 1281.171
497.451;  668.544;  -11.926; 1386.805
498.038;  789.657;  -10.885; 1556.729
498.626;  926.622;   -6.315; 1741.407
499.214; 1101.370;   -7.326; 2016.609
499.801; 1293.926;  -11.906; 2220.633
500.389; 1507.750;  -10.466; 2312.494
500.976; 1788.466;   -5.236; 2744.849
501.564; 2193.619;   -8.936; 3148.565
502.151; 2794.913;  -13.176; 3515.999
502.738; 3427.990;  -10.646; 3971.274
503.326; 3881.030;   -9.525; 4403.796
503.913; 4155.194;  -10.856; 5161.749
504.500; 4593.022;  -11.586; 5986.420
505.088; 5214.172;  -10.336; 6381.201
505.675; 5589.803;   -6.355; 6925.547
506.262; 6135.711;   -9.046; 7619.060
506.849; 6681.645;  -10.416; 8733.969
507.436; 6917.453;  -10.305; 9790.121
508.023; 7597.211;   -5.496; 9985.472
508.610; 8491.106;   -7.856;10434.618
509.197; 9885.177;  -10.097;11198.435
509.784;11347.660;  -10.886;12391.194
510.371;12587.942;   -9.315;13603.713
510.958;13377.763;   -9.936;14426.586
511.545;13498.241;   -9.326;15243.775
512.132;14257.400;  -10.075;15945.876
512.719;15931.583;   -7.796;16340.369
513.305;18506.646;  -10.606;18011.766
513.892;19193.250;  -11.486;19754.971
514.479;20080.855;   -9.126;20967.805
515.066;21238.904;   -6.026;22299.793
515.652;20934.822;   -8.466;22908.660
516.239;21815.914;  -10.886;23798.875
516.825;23988.949;  -11.496;25567.275
517.412;25482.850;   -5.796;28154.959
517.998;25538.143;  -10.506;28344.111
518.585;25059.025;  -10.076;27134.219
519.171;25423.346;   -8.315;27268.576
519.758;26841.146;   -8.596;28964.129
520.344;28589.732;   -8.466;30664.494
520.930;30523.494;  -11.006;32550.605
521.516;31376.092;  -10.495;35422.895
522.103;32720.889;   -5.526;38280.004
522.689;34531.016;   -8.746;37835.117
523.275;35300.105;  -11.376;37288.613
523.861;35861.977;  -11.156;37281.395
524.447;36316.477;   -8.135;37846.949
525.033;37241.379;   -7.896;38321.949
525.619;39798.848;  -12.476;38579.285
526.205;40693.785;   -9.516;40622.875
526.791;41011.703;   -6.926;42258.836
527.377;41181.199;   -8.346;42966.902
527.963;41955.332;   -8.717;42018.949
528.549;42300.879;  -11.016;42476.828
529.135;41979.242;   -8.536;41854.852
529.721;40881.902;   -9.666;41237.711
530.306;40479.145;  -10.066;41259.445
530.892;39005.129;  -11.356;41506.047
531.478;40022.328;   -6.596;43559.613
532.063;42489.266;   -8.836;47695.563
532.649;44063.004;  -10.047;50808.324
533.235;45679.313;   -9.746;51787.500
533.820;47933.164;   -6.566;52145.035
534.406;49447.129;  -10.817;51133.488
534.991;51326.711;   -9.416;49996.805
535.576;46854.922;   -9.036;48882.852
536.162;45935.531;   -6.156;46942.285
536.747;47280.238;  -11.607;45711.746
537.333;49103.828;  -11.787;48510.180
537.918;50427.902;  -12.437;50439.891
538.503;48764.207;   -7.196;50863.711
539.088;49593.414;  -10.556;50906.922
539.673;50480.457;   -8.767;52621.965
540.259;48466.773;  -10.026;52368.094
540.844;47012.523;   -7.416;50879.109
541.429;48757.496;   -9.467;52077.777
542.014;50714.777;   -9.527;52716.695
542.599;51775.027;   -9.946;52363.281
543.184;49820.613;   -7.927;53187.137
543.769;49039.227;   -9.297;54697.605
544.354;47377.941;  -10.127;53913.914
544.938;45953.172;   -9.267;49680.164
545.523;46917.758;   -6.506;47386.277
546.108;49341.480;   -9.787;49151.949
546.693;49712.586;  -11.587;51384.637
547.278;48353.195;  -10.986;51853.254
547.862;45849.523;   -8.206;51173.750
548.447;45815.613;  -10.067;51691.395
549.031;49988.555;   -9.637;52456.703
549.616;50878.223;   -9.926;52714.516
550.201;49070.078;   -6.347;52414.598
550.785;47313.785;   -7.917;52355.059
551.370;42164.785;  -10.867;54589.453
551.954;45027.941;   -9.047;58267.348
552.538;49513.348;   -7.827;59062.176
553.123;49422.805;  -10.287;58115.285
553.707;48421.758;  -12.178;56556.285
554.291;48651.961;   -8.717;56201.668
554.876;48656.621;   -7.457;55335.762
555.460;47740.422;  -10.387;54155.703
556.044;47179.305;   -9.618;53721.484
556.628;46520.734;  -11.567;53731.016
557.212;48931.066;   -8.097;54312.531
557.796;48130.766;  -11.077;53797.773
558.380;46516.395;  -11.108;56145.984
558.964;43789.875;   -9.057;57277.930
559.548;42332.035;   -6.977;56459.641
560.132;43009.617;  -11.457;54434.543
560.716;43584.473;  -11.378;54800.617
561.300;43997.711;   -9.577;57606.945
561.884;44219.656;   -7.127;58972.445
562.467;46993.188;   -7.118;57327.570
563.051;46509.363;  -13.358;54962.434
563.635;47041.059;  -10.178;52594.473
564.219;47543.801;   -7.837;50610.410
564.802;46560.121;  -11.398;49551.180
565.386;45085.574;  -12.788;48370.953
565.969;43900.457;   -9.077;48178.871
566.553;44782.660;   -6.207;49957.305
567.136;45582.625;   -8.568;50369.594
567.720;45776.000;  -11.868;49492.004
568.303;44997.352;   -8.268;50616.352
568.887;43078.980;   -8.698;50727.148
569.470;42687.473;   -6.808;51698.379
570.053;39914.750;  -13.188;52122.078
570.637;37581.055;  -12.037;52536.438
571.220;38068.375;   -8.577;51186.098
571.803;39946.754;   -8.498;51032.762
572.386;39400.918;  -10.498;49609.887
572.969;39501.754;   -9.388;48285.926
573.552;40129.801;   -8.338;47624.285
574.135;40767.023;   -8.518;45498.641
574.718;40566.227;  -13.628;41970.434
575.301;37440.145;  -10.893;41447.137
575.884;34314.066;   -8.158;40923.836
576.467;36877.488;  -10.328;45267.723
577.050;37769.863;  -13.058;48175.543
577.633;38887.629;   -9.458;47729.328
578.216;37606.770;   -8.928;47579.793
578.799;35476.719;   -9.358;47820.996
579.381;34481.863;  -11.388;48115.551
579.964;33989.781;  -11.718;47333.766
580.547;35601.109;   -8.588;46668.969
581.129;36466.465;   -8.859;44466.141
581.712;35139.625;  -10.729;44164.922
582.294;35311.242;  -11.118;46477.855
582.877;35465.828;   -5.218;48244.254
583.459;35944.328;   -8.679;47437.895
584.042;35753.180;  -10.709;46943.219
584.624;35936.105;  -11.669;46792.227
585.206;39154.250;   -8.218;46557.250
585.789;38114.945;  -10.569;45793.773
586.371;36876.176;  -11.859;43836.391
586.953;34255.730;  -10.719;42972.492
587.536;32580.363;   -7.198;42487.211
588.118;34587.852;   -8.720;42086.414
588.700;35616.953;  -10.439;43389.930
589.282;34450.727;   -9.198;43646.039
589.864;34191.375;   -9.199;43438.109
590.446;33057.148;  -11.319;43151.926
591.028;33973.215;  -11.159;42781.867
591.610;34694.402;  -11.779;42839.098
592.192;31637.682;   -7.668;42820.402
592.774;30828.596;  -11.949;40724.277
593.356;30473.637;  -12.129;39874.789
593.937;30715.533;  -10.669;39980.648
594.519;31143.445;   -6.509;42069.633
595.101;33576.234;  -10.849;42976.031
595.683;35688.250;  -11.679;44084.441
596.264;34802.766;   -9.049;43478.797
596.846;36489.895;   -8.849;43803.672
597.427;38451.605;   -9.570;42986.934
598.009;36346.480;  -12.620;42832.219
598.591;33048.449;  -10.039;42580.086
599.172;31557.123;  -10.369;43061.805
599.753;32421.844;   -9.140;41691.469
600.335;33011.168;  -11.430;40692.520
600.916;31671.934;   -9.939;39982.422
601.498;33981.016;   -8.479;40318.617
602.079;34155.691;  -10.920;40670.609
602.660;33247.582;  -11.480;41450.898
603.241;33282.320;  -11.699;41137.738
603.823;33455.242;   -9.579;38868.797
604.404;32433.135;  -10.620;38182.785
604.985;31227.453;  -10.450;38078.047
605.566;31061.699;   -9.129;38056.633
606.147;32448.980;   -7.510;37020.418
606.728;32176.789;  -10.660;37883.359
607.309;31294.738;  -11.740;38748.273
607.890;30851.322;   -9.759;38850.230
608.471;30297.334;   -8.250;37457.918
609.051;31087.762;   -9.240;36066.457
609.632;30757.039;  -12.120;35991.074
610.213;29268.854;   -9.110;37402.641
610.794;29743.486;   -8.030;38383.363
611.374;30098.941;   -8.110;40562.387
611.955;30596.152;  -13.560;38533.727
612.536;30827.383;  -11.400;36951.789
613.116;32350.889;   -8.070;37197.891
613.697;32013.133;  -10.830;38411.125
614.277;30213.791;  -11.641;38673.938
614.858;29235.609;  -13.310;37075.863
615.438;29701.217;   -7.460;35092.906
616.019;29941.533;   -7.601;33666.301
616.599;29372.826;  -12.020;34189.023
617.179;29447.254;  -11.780;36952.047
617.760;31936.725;   -8.570;39582.574
618.340;34314.523;  -11.471;38943.977
618.920;32847.719;  -11.170;37594.156
619.500;31546.484;  -11.071;37866.938
620.080;31443.438;   -7.750;37869.043
620.660;32707.928;  -12.711;36868.617
621.241;30644.447;  -10.211;36352.309
621.821;29170.738;  -10.961;35459.520
622.401;30616.752;   -7.720;35207.414
622.980;31757.162;   -8.981;35980.422
623.560;32776.875;   -9.331;37351.328
624.140;29116.461;   -9.850;34388.582
624.720;25006.873;   -7.451;32368.764
625.300;23396.008;   -9.070;32638.629
625.880;26115.320;  -12.601;34599.035
626.459;29941.131;  -11.751;36831.738
627.039;31095.492;   -9.281;38299.098
627.619;31382.225;   -8.801;38289.574
628.198;31630.391;  -12.071;37220.695
628.778;32540.660;   -9.461;37632.563
629.357;34009.090;   -8.491;38003.012
629.937;33401.898;   -9.721;38402.039
630.516;33082.477;   -9.951;37868.801
631.096;32176.344;  -11.731;35760.410
631.675;32465.910;   -8.572;35225.219
632.254;33224.648;  -11.282;35130.289
632.834;33299.492;  -13.322;35794.570
633.413;34102.840;  -10.301;35788.922
633.992;33922.750;   -8.582;34532.863
634.571;32229.723;   -8.352;33590.113
635.151;32498.348;  -11.912;34943.863
635.730;32412.775;  -10.511;35352.523
636.309;32547.660;   -7.731;35366.605
636.888;32172.182;   -9.952;36165.637
637.467;30709.094;  -11.672;37515.902
638.046;31965.471;   -8.901;39288.695
638.625;31301.227;   -7.912;38279.699
639.204;31894.279;  -10.022;37741.598
639.782;31690.268;  -12.252;38364.551
640.361;29239.967;  -10.041;36740.621
640.940;26988.318;  -11.161;34950.082
641.519;27059.412;   -9.701;34137.398
642.097;29049.406;  -11.271;35654.258
642.676;29110.805;   -8.651;35637.957
643.255;31894.080;   -8.711;36567.074
643.833;34455.840;   -9.581;37809.434
644.412;33465.422;  -13.711;37337.293
644.990;31905.043;  -11.811;37018.531
645.569;31437.572;   -9.411;36518.469
646.147;32043.898;  -10.291;36186.430
646.726;31358.941;  -12.401;36267.688
647.304;29749.881;  -10.411;36647.625
647.882;31022.131;   -9.651;39286.742
648.461;33985.664;   -9.631;39157.703
649.039;34304.824;  -11.881;35412.883
649.617;33622.191;   -9.661;34744.918
650.195;33882.348;   -9.301;35403.098
650.773;33245.863;  -10.511;35053.797
651.352;32875.402;  -11.521;33756.816
651.930;31239.973;  -12.211;31868.773
652.508;25497.123;   -9.171;33121.551
653.086;24040.955;   -9.371;33564.793
653.663;28850.057;  -13.161;34054.668
654.241;30550.438;  -13.031;35693.309
654.819;32844.117;   -9.371;36422.906
655.397;31678.805;  -10.511;38213.484
655.975;31229.611;  -10.371;39507.625
656.553;32500.947;  -10.051;39498.223
657.130;31475.248;  -10.061;40395.480
657.708;29327.465;   -9.561;39242.020
658.286;29035.908;  -11.511;38920.020
658.863;28612.566;  -10.261;40202.898
659.441;30074.092;   -7.531;39677.938
660.018;31682.920;   -9.501;40413.355
660.596;31600.668;  -13.301;39931.414
661.173;29752.688;  -11.211;39604.531
661.750;29505.023;   -9.951;39700.070
662.328;31048.863;   -9.390;39292.809
662.905;30364.781;  -11.330;38235.648
663.482;26404.748;   -9.050;36212.305
664.060;23783.734;   -8.240;35944.945
664.637;27998.674;  -10.050;35170.785
665.214;31317.102;  -11.760;34197.523
665.791;32342.775;  -10.530;34549.520
666.368;32652.506;   -9.690;35118.578
666.945;32946.973;   -9.320;36019.418
667.522;31215.139;  -11.860;36048.438
668.099;30360.615;  -10.770;36243.914
668.676;32328.994;   -6.260;35958.875
669.253;33674.723;   -7.000;37384.730
669.830;34431.191;  -10.190;36779.629
670.407;34103.285;   -9.550;35231.289
670.984;32668.830;   -9.260;35544.270
671.560;29729.881;   -9.280;35466.867
672.137;26660.545;  -11.810;34280.863
672.714;25930.521;  -11.490;34632.863
673.290;30360.861;   -7.740;35135.422
673.867;34109.098;  -10.660;36114.480
674.443;33084.496;  -12.230;36152.859
675.020;30571.156;  -10.450;35327.238
675.596;28921.467;   -9.260;35795.176
676.173;29010.797;  -10.780;35430.355
676.749;30105.178;  -13.690;33549.516
677.326;29411.158;  -11.980;32210.012
677.902;27669.740;   -8.630;32068.871
678.478;27480.982;  -10.730;32583.891
679.054;29031.959;  -10.520;32088.928
679.631;30203.512;  -11.920;30978.848
680.207;30169.682;   -7.490;33160.887
680.783;30003.416;   -9.860;35570.363
681.359;32346.785;  -13.380;36125.184
681.935;32497.434;  -12.480;35240.922
682.511;30022.578;   -7.900;34429.961
683.087;28358.027;   -7.710;34463.680
683.663;28870.260;  -11.480;34648.898
684.239;30154.588;  -14.090;34546.457
684.815;29953.676;   -7.560;35586.375
685.390;28181.389;   -9.910;35821.895
685.966;28755.822;  -11.159;35085.871
686.542;27828.352;  -11.169;34198.230
687.118;28045.857;   -5.959;32847.707
687.693;31433.455;  -10.329;32794.027
688.269;32267.809;  -12.059;33072.367
688.844;32099.941;  -10.909;33141.664
689.420;33925.129;   -8.019;33965.742
689.995;32381.316;   -8.399;34655.523
690.571;29831.982;  -10.949;33576.742
691.146;29143.377;   -9.619;32657.219
691.722;31131.195;   -8.999;32526.979
692.297;31613.109;  -11.589;33014.617
692.872;30333.754;  -11.739;34012.254
693.448;30285.578;  -11.059;34237.434
694.023;29970.375;  -10.139;34142.672
694.598;27329.477;   -9.029;34132.031
695.173;27245.414;  -13.319;34205.250
695.748;29016.600;  -10.169;32882.488
696.323;28406.133;   -8.339;32864.906
696.898;27399.727;   -8.169;33170.004
697.473;27934.830;  -12.309;32432.984
698.048;27989.295;  -10.989;31649.303
698.623;27999.998;   -9.329;30778.141
699.198;28358.623;   -9.849;31140.119
699.773;28757.523;  -12.329;31764.299
700.348;30917.955;  -10.389;31780.816
700.922;30933.957;   -9.269;32046.375
701.497;28154.561;   -9.329;32603.574
702.072;28588.520;  -10.789;34799.871
702.646;28164.125;  -10.839;35793.172
703.221;29251.563;   -9.099;35201.590
703.795;29825.246;  -10.939;34764.527
704.370;30774.225;  -12.859;34307.367
704.944;31562.234;  -11.559;33509.887
705.519;30805.234;   -7.939;31388.584
706.093;32152.484;  -10.499;31340.104
706.668;30909.014;  -11.289;32630.281
707.242;30137.281;  -11.509;32728.779
707.816;28882.178;   -9.639;32947.238
708.390;26799.676;  -11.429;33277.855
708.965;25889.506;  -11.869;33834.336
709.539;27290.369;  -11.689;33709.273
710.113;28326.121;  -10.478;33044.313
710.687;28676.256;  -10.228;31953.992
711.261;28183.439;  -13.698;30505.949
711.835;28088.734;  -13.378;30262.369
712.409;28000.891;   -9.698;31254.447
712.983;27212.939;  -11.898;32754.986
713.557;27135.266;  -15.138;34018.824
714.131;25103.391;  -14.098;34579.625
714.704;23251.709;   -9.958;33890.262
715.278;24036.115;  -10.028;33531.102
715.852;24686.891;  -11.148;33601.660
716.425;25854.963;   -9.068;33515.117
716.999;25626.227;  -10.038;33185.555
717.573;24853.893;   -9.798;33905.996
718.146;26009.326;  -12.378;35199.293
718.720;27358.594;  -11.918;35060.551
719.293;28607.064;   -8.088;34973.230
719.867;28828.859;  -10.888;36394.449
720.440;28092.238;  -11.938;36663.008
721.013;28497.934;  -12.818;35102.426
721.587;27763.602;  -10.298;33985.266
722.160;27037.254;  -10.048;33524.965
722.733;26983.816;  -12.108;32987.043
723.306;26698.496;  -10.818;33066.301
723.880;27581.529;   -8.908;33399.500
724.453;26589.850;   -9.878;33468.297
725.026;25112.613;  -11.188;33816.637
725.599;25691.943;  -11.678;32797.996
726.172;27362.238;   -9.618;33187.434
726.745;27002.137;   -8.258;35136.613
727.318;26199.576;  -12.978;35751.730
727.891;24814.135;  -12.148;35890.430
728.463;24508.559;   -8.968;34822.090
729.036;24688.602;  -10.188;32895.086
729.609;26168.672;  -11.788;31823.225
730.182;26588.982;  -11.788;31445.283
730.754;24572.637;  -10.268;32373.223
731.327;22912.553;   -9.998;33676.820
731.900;22586.193;  -12.228;33417.000
732.472;23841.418;  -13.848;31978.498
733.045;25177.727;   -8.698;30368.777
733.617;23805.398;  -10.607;30574.215
734.190;24463.928;  -11.507;31280.975
734.762;26023.838;  -13.647;31674.412
735.334;24344.285;   -9.767;31247.291
735.907;23493.793;   -9.897;29876.211
736.479;24120.236;  -11.637;29808.488
737.051;25206.020;   -9.567;30233.547
737.623;25096.156;   -8.187;31469.086
738.195;24798.613;  -11.187;31784.225
738.768;25034.217;  -12.337;32120.523
739.340;24133.396;  -12.227;32094.342
739.912;23328.273;  -11.057;31312.680
740.484;23504.125;  -10.207;31946.238
741.056;22275.336;  -10.047;32984.059
741.628;21066.816;  -13.627;33897.715
742.199;21289.225;   -7.177;33213.016
742.771;23852.121;  -10.797;31369.113
743.343;26244.383;  -11.997;31865.473
743.915;25980.545;  -12.867;32388.631
744.487;23860.680;   -7.617;31079.568
745.058;22676.510;   -9.557;30570.107
745.630;23045.275;   -9.877;29970.127
746.201;22649.111;  -14.177;29186.766
746.773;21489.861;   -9.237;28805.723
747.344;21965.580;   -9.847;29591.223
747.916;22792.465;  -11.657;31412.201
748.487;22411.113;  -10.587;32194.898
749.059;22112.988;   -8.707;32533.719
749.630;21777.590;  -10.537;32158.518
750.201;22371.715;  -11.687;30855.395
750.773;23241.742;  -11.647;28622.555
751.344;22877.316;   -7.147;28405.732
751.915;21921.697;   -9.757;28461.551
752.486;21165.461;  -12.427;27842.850
753.057;20486.115;  -12.227;27845.008
753.628;19639.594;  -10.417;27728.107
754.199;18646.242;  -11.767;27381.086
754.770;18719.934;  -11.187;25882.203
755.341;19910.512;  -10.507;25886.184
755.912;20092.170;   -9.387;26050.861
756.483;18634.818;  -10.647;26798.779
757.054;18375.457;  -11.837;27048.238
757.625;19215.484;  -12.716;26294.838
758.195;19932.041;   -9.666;26142.076
758.766;21294.471;   -8.656;26392.234
759.337;21184.221;  -12.856;26334.594
759.907;20687.781;  -13.366;27579.652
760.478;21064.578;   -8.576;28352.770
761.048;20347.346;  -10.526;27325.088
761.619;20212.350;  -11.116;26460.428
762.189;20502.650;  -12.136;26029.826
762.760;19741.418;   -9.456;26430.145
763.330;19033.178;   -7.136;26670.902
763.900;19952.512;  -11.786;26603.021
764.471;19580.602;  -11.546;25542.740
765.041;17741.936;   -8.096;24358.459
765.611;16180.852;   -8.876;23991.297
766.181;15537.471;  -12.196;24470.236
766.751;15792.475;  -11.636;24845.975
767.321;16940.957;  -10.156;24533.633
767.891;17844.715;  -11.766;24916.492
768.461;17469.162;  -14.936;24776.771
769.031;16925.988;  -12.356;24757.988
769.601;17128.473;   -7.526;24181.088
770.171;17715.406;  -10.766;23670.387
770.741;17092.129;  -13.176;22960.045
771.311;15942.215;  -10.616;22917.523
771.880;15719.470;   -9.576;23562.941
772.450;15673.750;  -10.336;24216.500
773.020;16176.292;  -13.516;24140.398
773.589;16146.672;  -13.466;24414.857
774.159;15748.101;   -8.686;23858.717
774.729;16052.984;   -9.476;22942.135
775.298;15729.377;  -13.666;22324.033
775.867;14756.831;  -11.716;21140.313
776.437;13877.035;   -9.906;20838.092
777.006;13938.171;  -12.166;20599.510
777.576;13324.872;  -12.356;20508.809
778.145;13246.472;  -11.646;20732.947
778.714;13287.345;   -8.226;21062.465
779.283;13279.876;   -9.556;20949.664
779.853;13522.114;  -14.116;20508.623
780.422;13446.003;  -11.506;20649.082
780.991;13606.928;   -9.556;21527.520
781.560;13323.009;   -9.095;22632.658
782.129;11772.329;  -12.135;23048.277
782.698;10932.156;  -10.865;23438.555
783.267;11006.372;   -9.335;23267.734
783.836;11816.816;  -11.045;22415.133
784.404;12849.475;  -13.865;20443.152
784.973;12635.019;  -13.095;19699.150
785.542;12140.913;  -11.575;19763.828
786.111;11991.756;   -9.705;20341.408
786.679;11796.965;  -12.105;20207.967
787.248;11355.253;  -12.455;19516.465
787.817;10562.930;  -11.535;18900.363
788.385;10905.055;   -9.765;17879.121
788.954;11868.305;  -14.005;17658.301
789.522;12393.219;  -11.955;17788.879
790.090;12022.670;  -10.135;18118.277
790.659;11892.856;  -10.975;18338.736
791.227;11925.723;  -13.375;18508.615
791.795;11614.549;  -12.375;17898.254
792.364;11574.113;  -10.725;17295.133
792.932;11778.450;   -9.715;16822.051
793.500;11898.318;  -12.675;17040.148
794.068;11798.219;  -13.495;17179.787
794.636;10654.253;  -10.885;16664.246
795.204; 9755.434;  -11.045;16524.545
795.772; 9610.729;  -13.175;17274.564
796.340;10483.883;  -12.445;17891.002
796.908;10746.593;   -9.735;17648.561
797.476;10748.583;   -9.815;17064.080
798.044;10538.499;  -13.985;16672.777
798.612;10162.559;  -13.115;17023.996
799.180; 9833.567;  -10.185;16561.615
799.747; 9377.040;   -9.055;15962.773
800.315; 8438.550;  -12.385;15296.992
800.883; 7918.514;  -15.035;14801.771
801.450; 8348.201;  -10.365;14534.430
802.018; 9218.573;   -9.855;14173.248
802.585; 9956.797;  -11.905;14029.547
803.153; 9755.355;  -11.585;13836.846
803.720; 9156.015;   -9.095;13567.324
804.287; 8838.962;   -9.135;13360.622
804.855; 8937.759;  -11.604;13681.981
805.422; 9362.759;  -11.794;13536.560
805.989; 8743.688;  -10.734;13355.958
806.556; 8429.754;  -10.444;13747.896
807.124; 8575.411;  -12.764;13987.376
807.691; 8696.478;  -12.964;14038.674
808.258; 9119.843;  -11.134;14120.152
808.825; 9319.740;   -9.854;13860.111
809.392; 8717.601;  -10.504;13268.790
809.959; 8277.375;  -13.054;12680.389
810.526; 7988.966;   -8.294;12427.308
811.093; 8023.814;   -8.394;12030.105
811.659; 7798.641;  -12.304;11653.664
812.226; 7199.903;  -13.944;11637.183
812.793; 7032.311;  -10.484;11611.521
813.360; 7230.625;  -10.144;11885.181
813.926; 7209.627;  -11.684;12770.539
814.493; 7120.602;  -13.644;12677.638
815.060; 6750.989;   -9.724;11974.336
815.626; 6200.437;   -9.854;11594.715
816.193; 6127.121;  -13.254;11579.474
816.759; 6131.404;  -13.204;11666.972
817.325; 6441.845;   -9.434;11325.530
817.892; 6534.285;  -10.134;11105.369
818.458; 6152.326;  -13.474;10843.928
819.024; 5859.610;  -11.854;10714.406
819.591; 5835.640;  -10.244;10469.165
820.157; 5742.065;  -10.704;10235.523
820.723; 5807.332;  -12.324;10847.563
821.289; 6165.449;   -9.444;11040.980
821.855; 6345.109;   -8.374;10357.100
822.421; 6288.471;  -10.234; 9978.918
822.987; 6262.262;  -13.294; 9754.177
823.553; 6464.022;  -10.884;10065.755
824.119; 6430.470;   -8.884;10036.294
824.685; 6145.039;   -6.784;10029.192
825.251; 5712.547;  -12.004;10199.230
825.816; 5705.973;  -11.474; 9820.189
826.382; 5876.161;   -9.174; 9297.248
826.948; 5879.192;   -9.214; 9381.347
827.513; 5672.542;  -10.774; 9450.726
828.079; 5403.673;  -11.924; 9472.444
828.645; 5284.815;  -10.543; 9292.643
829.210; 5293.520;  -10.533; 9065.341
829.776; 5100.709;  -10.753; 9132.620
830.341; 4910.993;  -10.173; 9092.878
830.906; 4772.423;  -10.743; 9078.557
831.472; 4818.884;  -11.113; 8534.535
832.037; 4853.824;  -10.603; 8677.874
832.602; 4849.553;  -13.323; 8628.692
833.167; 4867.940;  -10.823; 8879.031
833.733; 4607.440;  -10.113; 9189.790
834.298; 4480.902;  -13.583; 9052.608
834.863; 4631.588;  -12.703; 8895.087
835.428; 4740.513;  -10.523; 8824.266
835.993; 4706.765;   -6.963; 8845.385
836.558; 4538.873;  -10.763; 8888.563
837.123; 4428.695;   -9.903; 8966.582
837.688; 4317.479;   -9.913; 8617.860
838.253; 4346.525;  -10.283; 8590.699
838.817; 4627.132;  -12.963; 8443.797
839.382; 4701.728;  -14.243; 8799.356
839.947; 4578.046;  -10.733; 8810.595
840.511; 4350.216;   -9.383; 8796.394
841.076; 4275.395;  -12.563; 8347.231
841.641; 4234.752;  -12.953; 8224.330
842.205; 3860.331;   -7.043; 8223.349
842.770; 3641.729;   -8.163; 8622.107
843.334; 3703.136;  -12.503; 8410.386
843.898; 3911.808;  -11.693; 8337.465
844.463; 4003.414;  -10.203; 8506.283
845.027; 3919.013;   -9.533; 8280.962
845.591; 3772.726;  -13.443; 8231.141
846.156; 3693.254;  -13.143; 7969.179
846.720; 3636.547;   -9.433; 7768.278
847.284; 3253.458;  -11.033; 7630.957
847.848; 2894.803;  -10.403; 7472.395
848.412; 2948.065;  -11.553; 7437.394
848.976; 3299.987;   -8.393; 7674.592
849.540; 3595.828;   -8.713; 7836.011
850.104; 3587.958;  -12.463; 7913.669
850.668; 3516.306;  -12.973; 7694.508
851.232; 3316.599;  -10.793; 7756.887
851.796; 3170.131;  -10.662; 7926.545
852.359; 3315.586;  -13.082; 7827.844
852.923; 3365.163;  -12.192; 7641.163
853.487; 3360.901;  -11.912; 7342.501
854.050; 3442.335;  -10.892; 7042.820
854.614; 3391.788;  -13.992; 7151.338
855.177; 3190.116;  -11.732; 7105.077
855.741; 3028.853;   -8.962; 6989.675
856.304; 3014.480;   -9.442; 6596.634
856.868; 3041.868;  -14.192; 6356.272
857.431; 3109.574;  -12.702; 6468.571
857.995; 3350.925;   -9.942; 6373.210
858.558; 3449.603;   -9.112; 6324.448
859.121; 3091.255;  -12.932; 6408.327
859.684; 2784.516;  -13.442; 6347.886
860.247; 2684.509;  -10.632; 6321.264
860.810; 2781.485;  -11.272; 6301.903
861.374; 2919.017;   -9.832; 6607.881
861.937; 2917.801;  -11.762; 6408.200
862.500; 2907.065;   -9.722; 6572.639
863.062; 2885.795;  -10.512; 6387.297
863.625; 2819.493;  -11.232; 6190.836
864.188; 2685.589;  -14.112; 5807.254
864.751; 2464.396;  -11.302; 5682.413
865.314; 2349.848;  -10.112; 5547.492
865.876; 2462.478;  -12.182; 5500.150
866.439; 2652.356;  -10.722; 5415.909
867.002; 2688.318;   -9.252; 5501.567
867.564; 2532.748;   -9.572; 5413.946
868.127; 2293.283;  -13.142; 5160.325
868.689; 2187.645;  -12.902; 5133.183
869.252; 2112.153;   -9.732; 5252.382
869.814; 2034.954;   -9.432; 5297.141
870.377; 2106.078;  -11.552; 5390.919
870.939; 2194.906;   -9.052; 5599.898
871.501; 2131.134;  -10.982; 5248.336
872.063; 2107.586;  -12.292; 4854.235
872.626; 2084.307;  -14.912; 4817.074
873.188; 2072.388;  -13.112; 4987.732
873.750; 2063.715;  -13.442; 4868.651
874.312; 1982.999;   -9.402; 4779.330
874.874; 1860.572;  -11.062; 4866.348
875.436; 1849.242;  -13.931; 4718.887
875.998; 1837.868;   -9.561; 4660.005
876.560; 1733.986;  -11.321; 4462.964
877.122; 1627.511;  -12.221; 4145.042
877.683; 1559.611;  -12.191; 4056.481
878.245; 1571.491;  -12.101; 3950.740
878.807; 1640.952;   -8.971; 4058.958
879.369; 1681.348;  -12.071; 3954.677
879.930; 1604.070;  -14.621; 3941.495
880.492; 1562.063;  -10.311; 4067.014
881.053; 1535.553;  -10.901; 3859.633
881.615; 1506.295;  -14.411; 3776.071
882.176; 1480.310;  -13.761; 3734.750
882.738; 1480.170;   -9.181; 3678.489
883.299; 1431.780;  -11.791; 3405.407
883.860; 1343.785;  -13.121; 3351.106
884.422; 1251.211;  -11.211; 3394.044
884.983; 1189.116;  -10.091; 3166.443
885.544; 1155.213;   -8.461; 3189.802
886.105; 1112.980;  -12.361; 3160.360
886.666; 1043.768;  -14.141; 3093.059
887.227; 1013.523;  -11.361; 2941.957
887.788;  995.832;  -11.401; 2974.836
888.349;  919.879;  -13.791; 2721.214
888.910;  851.490;  -13.191; 2696.493
889.471;  806.747;   -9.881; 2560.172
890.032;  761.753;   -9.881; 2558.190
890.593;  725.453;  -10.371; 2567.669
891.153;  705.739;  -13.301; 2460.307
891.714;  686.479;  -11.431; 2372.046
892.275;  647.107;  -11.291; 2309.505
892.835;  637.958;  -11.471; 2382.543
893.396;  632.330;  -11.541; 2295.502
893.956;  600.361;  -11.181; 2162.420
894.517;  540.532;  -11.741; 2125.439
895.077;  475.532;  -11.671; 2086.978
895.638;  433.208;  -11.311; 2126.316
896.198;  422.562;   -9.831; 1838.275
896.758;  423.646;   -8.421; 1892.813
897.319;  407.575;  -12.351; 1792.232
897.879;  373.645;  -13.511; 1762.751
898.439;  346.816;  -12.001; 1661.149
898.999;  337.593;  -10.180; 1781.468
899.559;  331.022;  -12.030; 1703.347
900.119;  324.918;  -15.710; 1537.525
900.679;  315.476;   -8.900; 1638.384
901.239;  299.267;   -8.340; 1527.902
901.799;  276.353;  -13.910; 1456.441
902.359;  259.770;  -13.460; 1357.140
902.919;  253.527;  -11.490; 1331.118
903.479;  248.854;  -12.110; 1317.257
904.038;  242.404;  -11.720; 1262.595
904.598;  232.248;  -13.610; 1152.034
905.158;  221.189;  -11.040; 1240.893
905.717;  210.749;  -10.900; 1233.691
906.277;  205.855;  -15.080; 1217.330
906.836;  201.455;  -13.380; 1222.408
907.396;  198.634;  -10.780; 1193.047
907.955;  193.968;   -8.500; 1182.526
908.515;  187.561;  -12.760; 1099.364
909.074;  183.831;  -11.900; 1092.863
909.633;  180.650;   -8.950; 1069.121
910.192;  177.170;   -8.770; 1196.460
910.752;  173.285;  -12.390; 1029.960
911.311;  170.709;  -13.680; 1009.780
911.870;  167.702;  -12.370;  971.460
912.429;  166.269;  -10.900; 1094.080
912.988;  162.597;  -11.690; 1081.060
913.547;  157.479;  -13.240;  940.380
914.106;  156.593;  -11.990;  999.420
914.665;  155.937;   -9.990;  984.020
915.224;  151.151;  -12.880; 1035.760
915.782;  149.328;  -12.350;  922.560
916.341;  151.165;   -9.110; 1049.840
916.900;  147.976;   -9.270;  925.260
917.458;  146.034;  -13.240;  884.220
918.017;  144.058;  -13.550;  942.600
918.576;  143.250;  -12.320;  904.440
919.134;  142.513;  -11.490;  837.980
919.693;  142.379;  -13.670;  893.060
920.251;  142.053;  -15.470;  876.500
920.809;  141.108;  -11.290;  839.580
921.368;  139.800;  -10.210;  885.360
921.926;  138.133;  -12.140;  842.940
922.484;  136.426;  -13.080;  903.360
923.042;  135.217;  -11.720;  880.340
923.601;  136.016;   -7.480;  998.680
924.159;  134.177;  -11.570;  935.560
924.717;  133.169;  -13.840;  841.080
925.275;  135.477;  -10.640;  903.240
925.833;  134.694;  -11.540;  779.320
926.391;  135.399;  -12.960;  938.380
926.949;  136.243;  -14.130;  857.680
927.506;  137.213;  -11.750;  903.500
928.064;  136.226;  -10.250;  877.580
928.622;  133.855;  -13.030;  880.100
929.180;  134.888;  -13.400;  814.180
929.737;  135.711;  -10.700;  808.540
930.295;  136.358;  -10.070;  928.480
930.853;  136.245;  -11.960;  849.100
931.410;  138.424;  -13.120;  821.120
931.968;  140.916;  -10.770;  940.660
932.525;  140.610;  -10.680;  909.380
933.082;  141.524;  -13.130;  811.440
933.640;  147.036;  -13.210;  925.900
934.197;  152.165;  -11.060;  886.360
934.754;  156.113;   -9.580;  897.780
935.312;  154.866;  -14.000;  863.340
935.869;  152.428;  -10.710; 1012.980
936.426;  150.668;   -9.860;  872.800
936.983;  151.357;   -9.710;  889.020
937.540;  151.370;  -13.990;  838.280
938.097;  153.524;  -14.040;  940.120
938.654;  154.035;  -10.310;  898.860
939.211;  152.903;  -10.560;  952.480
939.768;  150.604;  -13.900;  915.420
940.324;  151.158;  -14.760;  904.200
940.881;  155.811;  -10.370;  878.500
941.438;  160.058;   -8.260; 1021.200
941.995;  160.494;  -12.540;  992.560
942.551;  158.898;  -14.670;  875.620
943.108;  157.668;  -10.450;  937.920
943.664;  156.940;  -10.750;  869.340
944.221;  161.021;  -11.550; 1088.140
944.777;  162.502;  -14.770;  869.680
945.334;  166.949;  -12.820;  884.840
945.890;  171.769;  -10.130;  946.480
946.446;  172.314;  -13.470;  947.020
947.003;  173.102;  -12.120;  964.940
947.559;  175.707;   -9.980; 1063.040
948.115;  176.128;   -9.080; 1026.540
948.671;  178.602;  -10.830;  967.300
949.227;  176.460;  -12.440;  859.560
949.783;  168.451;  -12.910;  858.900
950.339;  163.071;  -10.270;  991.000
950.895;  159.565;  -13.630; 1023.840
951.451;  158.990;  -15.100;  925.280
952.007;  160.929;  -11.330;  998.540
952.563;  160.624;  -10.580;  937.780
953.118;  159.779;  -13.440;  904.940
953.674;  156.775;  -12.710;  935.780
954.230;  157.143;  -10.350;  949.640
954.785;  157.090;   -9.190;  936.640
955.341;  157.099;  -11.200;  998.160
955.897;  151.427;  -16.560;  834.660
956.452;  147.208;  -12.570;  953.840
957.008;  143.075;   -7.970; 1083.640
957.563;  141.574;  -11.940; 1009.540
958.118;  142.121;  -13.450;  877.700
958.674;  144.517;  -12.030;  946.780
959.229;  143.150;   -9.410; 1013.980
959.784;  141.513;  -12.000;  832.400
960.339;  139.985;  -14.780; 1001.280
960.894;  133.979;   -9.860;  963.760
961.449;  129.334;   -9.970;  859.960
962.004;  128.658;  -10.900; 1212.840
962.559;  123.990;  -13.150;  860.140
963.114;  121.680;  -13.740;  742.480
963.669;  124.490;   -9.820;  915.500
964.224;  125.195;  -13.890;  874.340
964.779;  127.076;  -12.600;  828.420
965.334;  127.474;  -10.950; 1017.860
965.888;  120.195;  -11.170;  875.360
966.443;  116.286;  -12.540;  972.380
966.998;  114.428;  -15.780;  819.460
967.552;  116.515;   -9.760;  908.380
968.107;  113.165;   -9.060;  868.300
968.661;  113.209;  -11.950;  922.440
969.216;  111.423;  -12.800;  856.280
969.770;  109.894;  -11.210;  917.200
970.324;  108.684;  -11.610;  923.140
970.879;  106.845;  -11.370;  947.180
971.433;  106.573;  -12.540;  952.720
971.987;  105.267;  -11.320;  895.340
972.541;  104.449;  -10.720;  917.100
973.095;  105.794;   -9.680; 1009.460
973.649;  105.466;  -11.440;  809.480
974.203;  104.980;  -11.210;  829.040
974.757;  103.404;  -10.240;  855.220
975.311;  101.841;  -13.720;  872.600
975.865;  103.309;  -13.770;  881.820
976.419;  104.038;  -11.690;  857.400
976.973;  104.549;   -9.510;  849.620
977.526;  102.969;  -12.620;  949.920
978.080;   99.569;  -12.010;  796.780
978.634;   97.929;  -10.170;  921.320
979.187;   94.159;   -9.020;  905.400
979.741;   94.531;   -9.820; 1018.380
980.294;   91.378;  -14.870;  789.160
980.848;   90.082;  -12.380;  717.220
981.401;   90.919;  -10.350;  816.540
981.955;   90.886;  -13.720;  844.300
982.508;   88.468;  -11.490;  746.340
983.061;   89.867;  -10.000;  915.260
983.615;   87.096;  -11.480;  798.800
984.168;   84.518;  -13.220;  770.080
984.721;   83.755;  -13.960;  880.760
985.274;   80.558;  -10.870;  867.500
985.827;   78.228;   -9.790;  834.220
986.380;   75.892;  -13.120;  721.340
986.933;   75.775;  -12.450;  864.800
987.486;   75.288;  -10.210;  861.920
988.039;   75.294;   -8.430;  863.100
988.591;   73.719;  -10.520;  893.260
989.144;   72.215;  -14.860;  737.260
989.697;   71.723;  -13.080;  758.740
990.250;   71.738;  -10.150;  858.100
990.802;   69.203;  -13.430;  755.860
991.355;   68.795;  -12.750;  974.880
991.907;   66.488;  -12.040;  864.320
992.460;   64.180;  -11.330;  753.760
993.012;   61.546;  -13.610;  749.540
993.565;   60.175;  -13.460;  711.360
994.117;   61.849;   -9.360;  950.780
994.669;   58.993;  -11.300;  701.320
995.221;   58.303;  -13.540;  791.920
995.774;   57.449;  -13.430;  787.580
996.326;   57.031;  -12.520;  740.220
996.878;   57.737;  -10.950;  838.420
997.430;   55.747;  -14.300;  699.860
997.982;   54.531;  -13.760;  750.140
998.534;   54.516;  -11.530;  739.060
999.086;   52.846;  -10.310;  738.220
999.638;   51.445;  -12.530;  661.380
1000.190;   50.251;  -11.840;  699.320
1000.741;   50.307;  -10.260;  742.700
1001.293;   49.970;   -8.860;  686.020
1001.845;   48.572;  -13.700;  676.640
1002.396;   48.716;  -12.100;  743.400
1002.948;   49.605;  -12.760;  737.400
1003.500;   47.009;  -10.380;  723.780
1004.051;   47.780;  -11.900;  907.580
1004.603;   46.246;  -12.250;  791.820
1005.154;   43.220;  -13.210;  608.980
1005.705;   42.163;  -10.950;  723.960
1006.257;   41.734;  -13.880;  707.220
1006.808;   41.092;  -12.840;  685.460
1007.359;   40.835;  -10.570;  763.240
1007.910;   38.917;   -9.620;  646.640
1008.461;   38.911;  -13.630;  732.940
1009.013;   38.493;  -17.200;  588.340
1009.564;   39.541;  -10.200;  793.520
1010.115;   36.291;  -12.570;  597.040
1010.665;   36.330;  -15.150;  602.160
1011.216;   37.266;  -14.480;  667.920
1011.767;   36.907;  -11.340;  697.920
1012.318;   37.340;   -9.780;  736.980
1012.869;   35.756;  -12.380;  679.000
1013.419;   35.260;  -15.560;  603.120
1013.970;   35.058;  -11.010;  666.640
1014.521;   34.240;  -11.610;  620.620
1015.071;   34.478;  -13.450;  670.380
1015.622;   34.354;  -13.870;  635.460
1016.172;   34.289;  -11.610;  596.820
1016.723;   34.892;  -12.120;  614.380
1017.273;   33.288;  -13.620;  604.160
1017.823;   33.784;  -14.140;  650.340
1018.374;   32.913;  -12.800;  611.760
1018.924;   32.561;  -12.340;  716.880
1019.474;   32.833;  -11.410;  718.880
1020.024;   31.722;  -14.770;  657.580
1020.574;   33.016;   -9.780;  726.160
1021.124;   32.833;   -8.560;  673.580
1021.674;   30.913;  -15.190;  559.120
1022.224;   32.345;  -13.530;  708.940
1022.774;   31.606;  -13.280;  668.820
1023.324;   32.202;  -10.690;  753.520
1023.874;   33.485;  -10.240;  875.760
1024.423;   31.075;  -12.540;  613.700
1024.973;   30.943;  -10.010;  610.760
1025.523;   30.004;  -10.550;  620.960
1026.072;   28.713;  -13.560;  606.420
1026.622;   28.863;  -15.120;  675.740
1027.172;   30.497;  -11.260;  715.660
1027.721;   28.585;  -11.410;  601.220
1028.270;   28.722;  -13.530;  663.400
1028.820;   29.149;  -13.680;  638.080
1029.369;   28.885;  -13.520;  612.700
1029.918;   29.432;  -10.980;  649.840
1030.468;   27.970;  -13.530;  564.780
1031.017;   28.580;  -13.170;  634.800
1031.566;   27.812;  -12.200;  608.900
1032.115;   28.308;   -9.960;  694.500
1032.664;   27.194;  -13.210;  596.480
1033.213;   27.477;  -12.500;  735.420
1033.762;   27.522;  -11.910;  635.620
1034.311;   26.756;   -9.640;  677.220
1034.860;   27.056;  -13.310;  691.000
1035.408;   26.968;  -11.830;  722.720
1035.957;   27.439;  -12.000;  719.540
1036.506;   24.866;  -11.690;  530.800
1037.055;   28.206;  -10.990;  844.320
1037.603;   26.650;  -15.120;  664.000
1038.152;   24.729;  -12.450;  534.760
1038.700;   25.107;  -10.560;  585.740
1039.249;   24.348;  -11.080;  681.220
1039.797;   25.205;  -12.540;  633.360
1040.345;   25.304;  -11.920;  705.420
1040.894;   25.503;  -11.410;  625.300
1041.442;   24.623;  -14.320;  632.200
1041.990;   23.873;  -16.240;  559.160
1042.538;   24.028;  -11.680;  536.180
1043.087;   23.658;  -10.760;  570.860
1043.635;   24.765;  -11.850;  670.500
1044.183;   23.367;  -15.480;  586.400
1044.731;   23.123;  -11.770;  576.000
1045.279;   22.748;  -13.090;  674.920
1045.827;   24.867;  -12.440;  892.400
1046.374;   21.741;  -13.840;  515.420
1046.922;   22.332;  -13.220;  590.580
1047.470;   23.295;  -10.230;  691.300
1048.018;   22.380;  -14.590;  647.960
1048.565;   23.949;  -12.050;  708.600
1049.113;   21.571;  -11.650;  557.000
1049.660;   22.218;  -10.510;  629.660
1050.208;   21.942;  -13.310;  675.640
1050.755;   21.264;  -15.900;  606.580
1051.303;   21.727;  -11.430;  686.820
1051.850;   21.645;   -8.480;  635.120
1052.397;   18.850;  -15.010;  473.960
1052.945;   20.732;  -13.960;  617.760
1053.492;   22.139;  -13.150;  741.840
1054.039;   22.186;   -9.630;  720.180
1054.586;   20.648;  -13.680;  557.240
1055.133;   21.044;  -14.570;  693.140
1055.680;   21.463;  -13.820;  646.620
1056.227;   20.120;  -11.730;  542.780
1056.774;   21.578;  -12.480;  794.980
1057.321;   19.588;  -13.930;  523.260
1057.868;   20.257;  -11.690;  651.320
1058.415;   19.939;   -9.520;  651.980
1058.961;   19.447;  -13.160;  678.940
1059.508;   19.343;  -12.920;  643.820
1060.055;   19.632;  -11.920;  581.780
1060.601;   19.824;  -11.500;  624.300
1061.148;   19.115;  -14.330;  616.820
1061.694;   19.209;  -16.870;  592.580
1062.241;   18.694;  -10.330;  596.320
1062.787;   19.398;  -10.620;  663.140
1063.334;   20.738;  -10.110;  808.560
1063.880;   19.180;  -13.400;  668.360
1064.426;   18.783;  -10.680;  706.820
1064.972;   18.168;   -9.920;  601.340
1065.518;   17.499;  -10.980;  566.640
1066.065;   18.365;  -14.890;  624.460
1066.611;   17.585;  -12.870;  598.800
1067.157;   18.678;  -12.950;  641.860
1067.703;   17.832;  -13.540;  668.480
1068.249;   17.761;  -13.540;  605.220
1068.794;   17.723;  -12.600;  626.880
1069.340;   16.856;  -10.620;  578.960
1069.886;   16.994;  -12.830;  590.700
1070.432;   16.050;  -14.870;  541.720
1070.977;   16.110;  -11.980;  601.080
1071.523;   17.015;   -8.200;  573.060
1072.068;   16.022;  -12.330;  582.000
1072.614;   16.050;  -16.370;  527.760
1073.160;   16.891;  -11.100;  687.040
1073.705;   16.292;  -10.480;  572.520
1074.250;   15.617;  -14.520;  559.900
1074.796;   16.402;  -11.460;  655.160
1075.341;   16.572;  -11.950;  664.100
1075.886;   16.007;  -11.460;  594.240
1076.431;   15.804;  -13.770;  649.880
1076.976;   15.593;  -12.680;  639.220
1077.521;   14.958;  -13.170;  583.080
1078.067;   14.563;  -10.860;  579.400
1078.612;   14.638;  -13.920;  661.620
1079.156;   15.286;  -13.880;  601.540
1079.701;   15.422;  -13.120;  693.260
1080.246;   15.953;   -9.940;  696.300
1080.791;   14.236;  -14.740;  625.020
1081.336;   15.621;  -13.750;  659.320
1081.880;   15.054;  -13.400;  649.680
1082.425;   14.264;  -12.220;  573.480
1082.970;   15.057;  -11.610;  717.040
1083.514;   13.528;  -13.580;  597.000
1084.059;   14.305;  -12.810;  586.720
1084.603;   13.327;  -12.320;  565.840
1085.147;   13.789;  -13.190;  645.220
1085.692;   13.933;  -12.480;  716.800
1086.236;   12.542;  -13.020;  503.140
1086.780;   14.610;   -9.190;  751.440
1087.325;   14.283;  -12.480;  654.620
1087.869;   13.657;  -12.450;  610.700
1088.413;   13.833;  -12.240;  705.040
1088.957;   12.184;   -9.020;  543.400
1089.501;   14.006;  -10.320;  766.640
1090.045;   13.374;  -12.720;  726.480
1090.589;   11.210;  -13.690;  569.920
1091.133;   12.649;  -10.020;  673.340
1091.676;   12.140;  -12.330;  591.940
1092.220;   11.772;  -14.970;  600.920
1092.764;   13.151;  -12.430;  706.960
1093.307;   12.618;   -9.800;  673.780
1093.851;   11.046;  -14.970;  556.540
1094.395;   12.623;  -15.310;  683.140
1094.938;   11.815;  -10.370;  632.520
1095.482;   11.461;  -11.050;  559.800
1096.025;   11.956;  -11.840;  710.880
1096.568;   12.989;  -12.840;  779.280
1097.112;   10.264;  -14.700;  508.180
1097.655;   11.671;   -8.720;  603.000
1098.198;    9.768;  -13.610;  600.180
1098.741;   10.318;  -13.350;  612.860
1099.285;   11.689;  -11.230;  657.300
1099.828;    8.962;  -11.840;  439.400
1100.371;   10.446;  -10.840;  608.160
1100.914;   11.260;  -14.190;  682.660
1101.457;   10.878;  -11.240;  679.900
1101.999;    9.754;  -11.270;  584.680
1102.542;   10.013;  -11.480;  641.440
1103.085;   10.100;  -11.750;  658.500
1103.628;   11.715;  -11.400;  762.060
1104.170;    9.707;  -10.490;  588.280
1104.713;    9.585;  -10.600;  646.700
1105.256;    9.477;  -14.360;  557.440
1105.798;    9.139;  -13.210;  499.980
1106.341;   10.829;  -10.270;  728.900
1106.883;    9.000;  -12.200;  521.340
1107.425;    9.258;  -13.110;  668.180
1107.968;    9.282;  -12.840;  612.380
1108.510;   10.351;   -6.480;  684.960
1109.052;    8.060;  -13.940;  612.620
1109.594;    8.242;  -13.690;  554.440
1110.136;    9.024;  -11.880;  643.220
1110.679;    8.085;   -9.500;  633.080
1111.221;    8.317;  -14.160;  604.460
1111.763;    8.253;  -13.980;  559.220
1112.304;    7.795;  -13.880;  547.140
1112.846;    8.646;  -12.210;  666.240
1113.388;   10.795;  -11.390;  942.180
1113.930;    8.079;  -14.540;  694.200
1114.472;    7.880;  -12.640;  606.540
1115.013;    7.161;  -11.620;  551.280
1115.555;    6.668;  -13.640;  587.100
1116.097;    6.121;  -15.380;  579.480
1116.638;    7.132;  -12.640;  684.600
1117.180;    7.573;   -9.850;  667.740
1117.721;    6.459;  -13.690;  568.580
1118.262;    8.397;  -12.680;  677.960
1118.804;    7.776;  -12.530;  637.340
1119.345;    6.280;  -11.690;  578.400
1119.886;    7.622;  -13.380;  704.040
1120.427;    6.280;  -14.070;  589.020
1120.969;    6.689;  -13.500;  597.920
1121.510;    5.297;  -11.480;  563.060
1122.051;    6.722;  -12.830;  723.580
1122.592;    6.182;  -14.290;  655.420
1123.133;    4.666;  -12.400;  547.940
1123.673;    7.418;  -10.130;  706.480
1124.214;    5.993;  -12.930;  612.460
1124.755;    6.482;  -14.380;  639.460
1125.296;    6.223;  -14.000;  627.320
1125.836;    6.837;  -10.070;  691.500
1126.377;    4.943;  -12.640;  599.660
1126.918;    6.075;  -12.960;  614.980
1127.458;    4.834;  -13.350;  622.220
1127.999;    6.224;  -10.750;  656.980
1128.539;    5.750;  -12.350;  694.240
1129.079;    5.084;  -14.860;  632.720
1129.620;    4.957;  -13.840;  558.100
1130.160;    4.828;  -12.330;  539.480
1130.700;    5.772;  -14.530;  640.840
1131.240;    6.040;  -12.530;  643.700
1131.781;    5.006;  -14.450;  619.680
1132.321;    4.117;   -9.790;  599.120
1132.861;    4.624;  -14.860;  564.200
1133.401;    3.402;  -14.290;  593.940
1133.941;    5.021;  -11.750;  626.280
1134.481;    4.142;   -9.920;  597.580
1135.020;    3.448;  -12.290;  609.160
1135.560;    4.233;  -11.650;  674.940
1136.100;    3.660;  -16.270;  501.160
1136.640;    3.797;  -10.890;  510.480
1137.179;    3.674;  -14.180;  537.960
1137.719;    4.213;  -16.250;  605.400
1138.258;    4.280;  -14.230;  587.360
1138.798;    4.585;   -9.090;  663.780
1139.337;    2.388;  -15.130;  482.840
1139.877;    4.138;  -13.680;  642.360
1140.416;    5.808;  -11.320;  878.060
1140.955;    2.547;  -10.860;  535.380
1141.494;    3.164;  -12.920;  669.280
1142.034;    2.411;  -13.930;  583.520
1142.573;    3.813;  -11.440;  646.280
1143.112;    2.896;  -12.000;  553.480
1143.651;    2.479;  -13.670;  536.480
1144.190;    3.938;  -12.730;  691.640
1144.729;    3.267;  -14.560;  607.420
1145.267;    3.297;  -11.830;  584.900
1145.806;    3.053;  -12.230;  637.040
1146.345;    2.735;  -14.130;  635.020
1146.884;    2.533;  -11.590;  622.500
1147.422;    1.431;  -12.550;  533.060
1147.961;    3.513;  -11.180;  708.460
1148.500;    2.986;  -11.510;  669.720
1149.038;    2.876;  -11.640;  632.500
1149.577;    2.680;  -10.130;  698.640
1150.115;    0.690;  -13.970;  452.280
1150.653;    2.318;  -14.520;  607.340
1151.192;    2.102;  -12.810;  552.920
1151.730;    2.325;   -9.100;  652.560
1152.268;    1.418;  -12.220;  589.520
1152.806;    2.000;  -14.140;  571.180
1153.344;    0.563;  -12.350;  577.640
1153.882;    1.470;   -8.980;  600.060
1154.421;   -0.477;  -15.190;  470.620
1154.958;    0.711;  -15.210;  595.240
1155.496;    2.349;  -12.850;  645.280
1156.034;    1.654;   -9.940;  721.880
1156.572;    2.390;  -13.570;  667.060
1157.110;    0.689;  -14.590;  473.940
1157.647;    1.598;  -13.030;  676.960
1158.185;    0.427;  -12.140;  564.320
1158.723;   -0.743;  -14.390;  509.200
1159.260;    0.979;  -14.090;  701.700
1159.798;    1.711;  -11.920;  658.160
1160.335;    0.598;  -11.110;  631.820

