
Integration time [ms]:   3.882
Averaging Nr. [scans]: 1000
Smoothing Nr. [pixels]: 0
Data measured with spectrometer [name]: 7414430SP
Wave   ;Sample   ;Dark     ;Reference
[nm]   ;[counts] ;[counts] ;[counts] 

288.544;  140.631;    7.153;  793.890
289.143;  143.196;    8.402;  681.602
289.742;  144.529;    7.062;  828.814
290.341;  131.754;    0.191;  789.841
290.940;  121.599;    0.321;  730.702
291.538;  122.617;    3.811;  881.108
292.137;  121.399;   -3.438;  792.581
292.736;  124.723;   -2.809;  975.101
293.335;  121.391;   -5.239;  735.086
293.934;  121.776;   -4.939;  781.677
294.532;  121.940;   -2.199; 1031.958
295.131;  108.515;   -6.831;  834.394
295.730;  107.374;   -6.620;  809.588
296.328;  105.311;   -6.471;  783.442
296.927;  105.192;   -6.571;  779.652
297.525;  107.105;   -7.391;  781.236
298.124;   98.100;   -9.402;  654.009
298.722;  102.118;   -5.781;  761.933
299.321;  100.661;   -6.351;  708.597
299.919;   97.945;   -8.661;  751.918
300.518;   94.036;  -11.922;  689.338
301.116;   95.642;   -6.941;  691.381
301.715;   95.876;   -5.471;  730.222
302.313;   95.130;   -8.361;  704.943
302.911;   90.577;   -9.082;  733.830
303.509;   96.303;   -4.571;  925.627
304.108;   92.942;   -7.111;  760.383
304.706;   92.504;   -7.681;  801.664
305.304;   87.811;   -9.162;  796.707
305.902;   93.031;   -6.761;  784.484
306.500;   87.916;   -6.921;  728.200
307.098;   86.799;   -6.491;  746.560
307.696;   83.907;   -6.941;  780.432
308.294;   84.633;   -6.301;  731.359
308.892;   87.871;   -4.771;  759.769
309.490;   82.941;   -5.141;  712.161
310.088;   81.253;   -2.912;  788.444
310.686;   86.384;   -0.421;  821.749
311.284;   81.449;   -3.461;  766.040
311.882;   79.472;   -6.282;  731.225
312.480;   76.463;   -3.632;  697.167
313.078;   78.941;   -2.112;  808.331
313.675;   79.662;   -1.931;  691.600
314.273;   74.552;   -1.442;  797.837
314.871;   73.622;   -3.002;  589.829
315.468;   71.748;   -2.252;  652.090
316.066;   75.762;   -1.091;  694.427
316.664;   68.035;   -4.512;  656.351
317.261;   72.280;   -0.062;  910.128
317.859;   67.237;   -0.952;  768.735
318.456;   67.814;    0.719;  830.096
319.054;   64.824;   -4.002;  787.828
319.651;   64.429;   -4.972;  759.928
320.249;   62.399;   -1.162;  810.188
320.846;   60.798;   -2.651;  714.286
321.443;   58.430;   -3.832;  832.135
322.041;   55.380;   -4.312;  812.315
322.638;   53.561;   -3.872;  701.456
323.235;   55.646;   -4.361;  665.683
323.833;   52.552;   -4.821;  740.354
324.430;   48.075;   -6.971;  615.900
325.027;   48.643;   -4.361;  876.855
325.624;   49.474;   -5.581;  644.532
326.221;   46.747;   -6.601;  689.717
326.818;   45.569;   -7.301;  818.332
327.415;   48.232;   -6.180;  748.828
328.012;   47.768;   -5.920;  690.585
328.609;   45.563;   -8.390;  731.389
329.206;   44.539;   -6.121;  778.621
329.803;   43.839;   -5.241;  737.841
330.400;   46.183;   -7.420;  704.260
330.997;   47.234;   -5.931;  817.147
331.594;   44.911;   -5.641;  788.185
332.191;   50.068;   -6.451;  728.722
332.787;   53.598;   -4.651;  844.463
333.384;   51.189;   -5.472;  763.093
333.981;   49.130;   -6.303;  815.687
334.578;   52.815;   -5.892;  708.378
335.174;   54.379;   -4.102;  731.469
335.771;   53.407;   -8.053;  836.456
336.367;   50.328;   -7.363;  710.631
336.964;   55.265;   -6.243;  793.266
337.561;   53.876;   -5.653;  731.112
338.157;   48.470;   -7.074;  911.916
338.754;   46.609;   -5.474;  796.589
339.350;   44.672;   -5.624;  722.493
339.946;   46.946;   -5.054;  773.135
340.543;   40.835;   -6.695;  846.136
341.139;   34.086;   -6.215;  720.836
341.735;   32.901;   -5.746;  772.593
342.332;   31.139;   -7.335;  691.472
342.928;   31.834;   -4.835;  795.394
343.524;   25.963;   -4.586;  761.684
344.120;   22.806;   -3.946;  738.562
344.716;   25.728;   -4.835;  723.717
345.313;   24.825;   -5.325;  795.342
345.909;   19.226;   -6.535;  627.336
346.505;   20.427;   -4.725;  740.247
347.101;   20.682;   -4.164;  827.864
347.697;   22.285;   -5.274;  785.398
348.293;   15.781;   -7.145;  627.244
348.889;   17.264;   -4.364;  745.914
349.485;   16.941;   -6.404;  688.205
350.081;   18.380;   -7.534;  772.592
350.676;   12.196;   -6.995;  691.606
351.272;   16.422;   -3.544;  809.530
351.868;   17.167;   -5.324;  780.497
352.464;   15.045;   -7.204;  723.932
353.059;   10.503;   -6.894;  646.017
353.655;   14.525;   -3.754;  777.063
354.251;   15.651;   -6.143;  759.845
354.846;    9.890;   -9.464;  740.646
355.442;    7.794;   -7.555;  753.071
356.038;    8.971;   -5.474;  751.708
356.633;    8.824;   -5.914;  728.594
357.229;    7.586;   -8.944;  724.757
357.824;    6.569;   -6.794;  703.600
358.420;    4.883;   -5.754;  679.726
359.015;    5.201;   -5.664;  695.357
359.610;    6.277;   -8.004;  763.920
360.206;    0.232;   -8.815;  603.240
360.801;    3.081;   -8.834;  646.503
361.396;    6.141;   -6.274;  725.975
361.992;    0.665;   -8.574;  668.220
362.587;   -1.524;   -9.265;  670.160
363.182;    0.946;   -5.484;  689.631
363.777;    1.411;   -5.164;  738.242
364.372;    0.822;   -6.954;  737.314
364.967;   -2.438;   -7.065;  680.744
365.563;    1.570;   -5.684;  815.567
366.158;   -0.555;   -6.484;  685.161
366.753;   -1.168;   -8.004;  649.263
367.348;   -2.453;  -10.114;  746.056
367.942;   -2.662;   -7.764;  697.298
368.537;   -2.996;   -4.554;  754.245
369.132;   -3.242;   -7.664;  703.428
369.727;   -6.627;   -8.905;  638.079
370.322;   -6.040;   -4.945;  580.186
370.917;   -5.623;   -7.095;  710.646
371.511;   -2.697;   -6.574;  861.834
372.106;   -6.679;   -6.515;  776.964
372.701;  -10.356;   -8.225;  585.988
373.296;   -3.969;   -4.494;  863.135
373.890;   -8.790;   -7.965;  647.840
374.485;  -10.691;   -9.745;  691.199
375.079;   -7.548;   -5.554;  738.685
375.674;   -5.470;   -4.724;  812.970
376.268;   -9.724;   -8.365;  691.759
376.863;  -16.074;   -8.126;  580.327
377.457;   -9.164;   -6.045;  662.490
378.052;  -11.335;   -6.835;  764.884
378.646;  -12.074;   -9.375;  741.167
379.240;  -12.282;   -6.185;  721.176
379.835;  -11.594;   -6.135;  636.978
380.429;  -12.923;   -8.365;  562.557
381.023;  -12.966;   -7.935;  779.205
381.617;  -16.042;   -8.325;  680.106
382.212;  -12.903;   -7.405;  685.303
382.806;  -11.614;   -4.155;  760.690
383.400;  -15.206;   -8.945;  672.281
383.994;  -16.410;   -8.365;  664.870
384.588;  -12.685;   -7.824;  697.701
385.182;  -10.946;   -7.984;  726.624
385.776;  -12.909;  -10.404;  706.875
386.370;  -16.306;   -7.335;  681.968
386.964;  -14.866;   -7.485;  684.155
387.558;  -12.766;   -8.174;  598.360
388.152;  -15.972;  -10.415;  681.959
388.745;  -14.247;   -9.595;  814.707
389.339;  -13.297;   -6.454;  747.642
389.933;  -12.275;   -5.804;  695.370
390.527;  -12.785;   -6.854;  859.029
391.120;  -19.274;   -7.665;  595.318
391.714;  -16.371;   -7.245;  711.633
392.308;  -12.347;   -4.514;  780.253
392.901;  -16.900;   -7.935;  642.460
393.495;  -18.627;   -8.585;  595.414
394.089;  -16.773;   -5.245;  760.452
394.682;  -17.059;   -6.305;  697.188
395.275;  -17.705;   -9.335;  719.927
395.869;  -19.178;   -7.375;  667.314
396.462;  -17.594;   -7.055;  616.609
397.056;  -12.996;   -5.434;  776.621
397.649;  -17.552;   -9.525;  731.575
398.242;  -15.306;   -7.574;  712.645
398.836;  -14.229;   -5.134;  766.408
399.429;  -15.633;   -6.544;  631.041
400.022;  -19.216;   -9.215;  665.902
400.615;  -16.143;   -8.105;  805.609
401.208;  -14.495;   -7.614;  691.451
401.802;  -16.853;   -8.085;  699.329
402.395;  -18.340;   -9.575;  683.502
402.988;  -19.154;   -9.285;  696.627
403.581;  -16.476;   -7.514;  646.878
404.174;  -13.574;   -6.404;  686.568
404.767;  -16.577;   -8.775;  638.583
405.360;  -19.284;   -7.415;  621.445
405.953;  -13.225;   -5.624;  759.034
406.545;  -12.885;   -6.474;  725.342
407.138;  -17.199;   -8.445;  618.350
407.731;  -16.098;  -10.044;  613.303
408.324;  -12.283;   -8.484;  660.554
408.917;  -12.261;   -7.624;  681.864
409.509;  -14.407;   -8.304;  740.396
410.102;  -17.692;   -8.495;  643.948
410.695;  -11.211;   -7.824;  665.758
411.287;  -11.604;   -7.754;  599.821
411.880;  -13.149;   -9.294;  585.421
412.472;  -16.075;   -8.814;  613.092
413.065;  -13.553;   -6.674;  629.408
413.657;  -11.611;   -9.664;  576.678
414.250;  -10.333;  -10.264;  646.681
414.842;  -12.485;   -8.664;  676.353
415.434;  -11.069;   -8.584;  570.463
416.027;   -6.405;   -9.423;  652.196
416.619;   -8.701;  -10.764;  713.400
417.211;   -9.369;   -7.404;  599.352
417.804;   -6.071;   -7.383;  628.499
418.396;   -9.617;   -8.334;  607.643
418.988;   -6.357;   -9.633;  659.238
419.580;  -10.031;  -10.554;  568.276
420.172;   -8.375;   -8.683;  536.196
420.764;   -3.520;   -9.713;  672.482
421.356;   -4.936;  -11.303;  636.898
421.948;   -6.059;   -8.453;  677.661
422.540;   -1.828;   -5.793;  680.027
423.132;   -2.159;   -7.162;  600.641
423.724;   -5.143;   -7.933;  561.267
424.316;   -3.466;   -9.083;  621.345
424.908;    0.455;   -8.392;  591.517
425.500;    1.123;   -8.062;  647.978
426.092;    2.114;   -9.692;  648.268
426.683;    0.037;   -8.223;  684.836
427.275;    3.095;   -8.602;  641.471
427.867;    5.387;   -8.382;  668.948
428.458;    5.593;  -10.472;  732.344
429.050;    3.798;   -9.112;  680.749
429.642;    5.781;   -7.752;  743.124
430.233;    6.116;   -8.832;  569.356
430.825;    7.105;   -8.292;  724.809
431.416;    4.768;   -7.522;  698.241
432.008;    8.209;   -9.262;  651.723
432.599;    9.311;   -6.441;  656.073
433.190;    5.983;   -9.222;  637.670
433.782;    5.299;  -11.832;  590.395
434.373;   12.525;   -7.121;  884.765
434.964;   11.057;   -9.141;  602.920
435.556;    9.225;   -9.332;  634.537
436.147;   11.772;   -8.892;  758.490
436.738;   11.830;   -8.151;  701.099
437.329;   17.655;   -8.281;  721.723
437.920;   10.105;   -9.062;  666.688
438.511;    9.977;  -11.182;  564.526
439.103;   16.976;   -7.461;  623.998
439.694;   18.828;   -8.541;  681.583
440.285;   20.032;   -7.351;  764.432
440.876;   17.801;   -8.201;  845.738
441.466;   16.225;  -10.381;  575.162
442.057;   22.208;   -7.620;  665.814
442.648;   20.757;   -8.461;  746.255
443.239;   19.001;   -8.991;  620.477
443.830;   24.124;   -7.910;  704.958
444.421;   25.891;   -7.340;  655.474
445.011;   22.499;   -8.981;  693.619
445.602;   22.235;   -9.341;  743.126
446.193;   23.416;  -11.390;  488.117
446.783;   28.028;  -11.240;  640.397
447.374;   23.916;   -8.471;  692.759
447.964;   24.567;   -8.471;  713.770
448.555;   32.413;   -6.590;  822.742
449.145;   28.955;   -8.200;  662.853
449.736;   29.803;  -11.040;  803.179
450.326;   30.244;   -9.640;  713.626
450.917;   34.268;   -9.480;  675.324
451.507;   33.519;   -8.020;  600.661
452.097;   34.502;  -10.210;  746.267
452.688;   35.984;   -7.810;  742.160
453.278;   35.190;   -9.360;  566.840
453.868;   39.561;   -8.669;  793.550
454.458;   37.403;  -10.950;  651.141
455.048;   37.006;  -10.200;  711.783
455.639;   39.445;   -9.369;  567.096
456.229;   42.931;   -7.739;  710.694
456.819;   44.503;   -8.939;  751.158
457.409;   44.639;   -7.169;  773.993
457.999;   47.184;   -7.779;  737.505
458.589;   46.822;   -7.039;  686.606
459.179;   47.863;   -9.019;  717.658
459.769;   45.885;   -8.909;  627.099
460.358;   49.943;   -8.659;  797.262
460.948;   49.946;   -8.209;  689.503
461.538;   51.858;   -9.879;  660.677
462.128;   49.904;   -9.379;  664.934
462.717;   56.128;   -9.158;  710.326
463.307;   59.588;   -8.638;  705.846
463.897;   55.187;   -8.869;  656.942
464.486;   54.319;   -7.409;  837.128
465.076;   58.160;   -9.618;  733.776
465.666;   62.291;   -7.578;  652.900
466.255;   60.440;   -9.369;  785.651
466.845;   59.617;  -10.049;  666.749
467.434;   62.155;   -8.168;  725.873
468.023;   63.273;   -9.188;  658.357
468.613;   60.019;   -9.849;  713.946
469.202;   64.497;  -12.958;  646.507
469.791;   68.247;   -9.488;  737.811
470.381;   71.244;   -6.468;  742.813
470.970;   71.146;  -10.248;  711.099
471.559;   70.233;  -11.428;  733.291
472.148;   73.585;   -9.738;  675.737
472.738;   76.058;   -7.877;  765.466
473.327;   75.745;  -11.868;  637.529
473.916;   74.453;   -8.578;  737.446
474.505;   78.815;  -11.137;  751.703
475.094;   81.544;   -9.407;  806.570
475.683;   81.401;   -9.977;  797.699
476.272;   81.865;  -10.807;  730.632
476.861;   85.470;  -11.017;  706.754
477.449;   91.498;  -10.316;  728.487
478.038;   85.578;  -10.187;  692.513
478.627;   85.809;  -12.458;  714.852
479.216;   92.897;  -10.127;  769.441
479.805;   95.492;   -6.256;  783.375
480.393;   96.151;   -8.737; 1008.945
480.982;   95.076;   -9.087;  874.501
481.571;  100.426;   -7.806;  858.333
482.159;  101.153;  -10.596;  705.386
482.748;  100.613;  -11.507;  821.385
483.336;  105.718;   -8.366;  858.209
483.925;  104.834;   -7.497;  774.373
484.513;  111.618;   -8.326;  758.962
485.102;  108.395;  -10.277;  810.965
485.690;  117.657;   -8.256; 1011.050
486.278;  118.313;   -7.146;  979.329
486.867;  118.758;   -7.986;  809.662
487.455;  121.465;   -9.926;  898.229
488.043;  121.851;  -10.026;  748.361
488.631;  130.953;   -7.226; 1005.079
489.220;  134.129;   -8.696;  908.626
489.808;  133.351;  -12.276;  741.415
490.396;  140.611;   -9.386;  914.645
490.984;  145.702;   -8.506;  830.161
491.572;  154.790;   -8.226;  940.315
492.160;  159.681;   -9.836;  919.081
492.748;  168.951;  -10.316;  884.341
493.336;  187.477;   -7.146; 1019.693
493.924;  207.178;   -7.965;  958.077
494.512;  230.316;  -10.316; 1066.638
495.100;  262.223;  -10.186; 1103.280
495.687;  309.769;   -7.805; 1206.373
496.275;  365.912;   -9.686; 1150.796
496.863;  435.478;  -11.566; 1281.171
497.451;  523.836;  -11.406; 1386.805
498.038;  641.999;   -8.235; 1556.729
498.626;  743.660;   -7.485; 1741.407
499.214;  883.195;   -8.646; 2016.609
499.801; 1104.248;   -9.936; 2220.633
500.389; 1275.465;   -8.056; 2312.494
500.976; 1433.163;   -6.166; 2744.849
501.564; 1613.388;   -9.126; 3148.565
502.151; 1874.517;  -12.456; 3515.999
502.738; 2253.752;  -10.056; 3971.274
503.326; 2659.832;  -10.605; 4403.796
503.913; 2994.799;  -10.576; 5161.749
504.500; 3458.186;   -9.056; 5986.420
505.088; 3926.145;  -10.136; 6381.201
505.675; 4622.875;   -9.075; 6925.547
506.262; 5128.730;  -11.346; 7619.060
506.849; 5799.417;   -9.376; 8733.969
507.436; 6336.550;   -7.365; 9790.121
508.023; 6657.722;   -8.686; 9985.472
508.610; 7005.436;   -8.846;10434.618
509.197; 7916.532;   -9.077;11198.435
509.784; 9127.846;  -10.246;12391.194
510.371; 9445.047;   -9.825;13603.713
510.958;10020.767;  -10.896;14426.586
511.545;10827.206;   -9.006;15243.775
512.132;11733.812;   -8.765;15945.876
512.719;12706.795;   -8.286;16340.369
513.305;14611.334;   -9.256;18011.766
513.892;16778.963;  -11.106;19754.971
514.479;18300.602;   -8.576;20967.805
515.066;19393.717;   -9.046;22299.793
515.652;19893.590;  -10.676;22908.660
516.239;21297.568;  -10.166;23798.875
516.825;21738.098;  -11.266;25567.275
517.412;21508.732;   -7.446;28154.959
517.998;22164.996;  -10.916;28344.111
518.585;21447.430;   -9.166;27134.219
519.171;21173.348;  -10.135;27268.576
519.758;22912.508;   -8.806;28964.129
520.344;25666.006;   -6.716;30664.494
520.930;27039.420;  -10.166;32550.605
521.516;27498.400;   -9.615;35422.895
522.103;29015.691;   -8.656;38280.004
522.689;31440.721;   -9.646;37835.117
523.275;32136.320;  -10.786;37288.613
523.861;33005.941;   -9.266;37281.395
524.447;33081.543;   -8.285;37846.949
525.033;33243.199;   -9.426;38321.949
525.619;32262.729;   -9.836;38579.285
526.205;32717.693;   -8.136;40622.875
526.791;33812.738;   -9.986;42258.836
527.377;35498.316;   -8.236;42966.902
527.963;34412.375;  -12.117;42018.949
528.549;33421.664;   -8.376;42476.828
529.135;34555.023;   -8.696;41854.852
529.721;36115.059;   -9.686;41237.711
530.306;38265.879;   -8.616;41259.445
530.892;41146.973;   -9.396;41506.047
531.478;41581.203;   -9.926;43559.613
532.063;43348.566;  -10.236;47695.563
532.649;45496.676;   -8.257;50808.324
533.235;46844.383;  -11.476;51787.500
533.820;45573.496;   -8.156;52145.035
534.406;43509.566;  -12.257;51133.488
534.991;41709.871;   -8.686;49996.805
535.576;39891.844;   -9.426;48882.852
536.162;39884.504;   -8.436;46942.285
536.747;38500.148;  -10.957;45711.746
537.333;37982.832;  -13.147;48510.180
537.918;40678.945;   -9.027;50439.891
538.503;42190.801;   -8.256;50863.711
539.088;46023.715;  -10.576;50906.922
539.673;48220.273;  -10.907;52621.965
540.259;48052.418;   -9.126;52368.094
540.844;45059.016;   -9.026;50879.109
541.429;45792.398;   -9.597;52077.777
542.014;49561.891;  -11.447;52716.695
542.599;50547.961;   -9.236;52363.281
543.184;49025.098;  -12.267;53187.137
543.769;50459.016;  -10.367;54697.605
544.354;50613.020;  -10.887;53913.914
544.938;44636.711;  -11.687;49680.164
545.523;39977.250;   -8.286;47386.277
546.108;41164.398;   -9.317;49151.949
546.693;43207.211;  -10.187;51384.637
547.278;42711.340;   -9.926;51853.254
547.862;42076.188;   -9.196;51173.750
548.447;40853.590;   -9.657;51691.395
549.031;40509.184;   -9.127;52456.703
549.616;44490.793;  -10.836;52714.516
550.201;48198.832;   -8.507;52414.598
550.785;48415.516;  -10.537;52355.059
551.370;47989.625;  -11.727;54589.453
551.954;48928.648;   -9.457;58267.348
552.538;48719.656;   -8.147;59062.176
553.123;46818.914;   -9.397;58115.285
553.707;44225.891;   -9.558;56556.285
554.291;45364.434;   -9.417;56201.668
554.876;45177.461;   -7.627;55335.762
555.460;43017.121;  -10.457;54155.703
556.044;41206.898;  -10.078;53721.484
556.628;42029.152;   -9.407;53731.016
557.212;42060.727;   -7.957;54312.531
557.796;41714.633;  -11.327;53797.773
558.380;46092.531;  -10.868;56145.984
558.964;47172.020;   -9.637;57277.930
559.548;45363.723;   -8.807;56459.641
560.132;45978.027;  -10.187;54434.543
560.716;45205.766;   -9.868;54800.617
561.300;45339.316;  -10.217;57606.945
561.884;45192.930;   -4.947;58972.445
562.467;43917.465;   -9.588;57327.570
563.051;41267.270;  -11.138;54962.434
563.635;38288.875;   -9.358;52594.473
564.219;38588.449;   -9.797;50610.410
564.802;40973.270;   -9.918;49551.180
565.386;40372.496;  -10.838;48370.953
565.969;40442.230;   -8.037;48178.871
566.553;40376.543;   -5.667;49957.305
567.136;38742.508;   -8.258;50369.594
567.720;38187.621;  -11.278;49492.004
568.303;41134.574;   -9.028;50616.352
568.887;40812.129;   -7.508;50727.148
569.470;39550.355;  -11.068;51698.379
570.053;39482.160;  -10.028;52122.078
570.637;37921.320;  -11.077;52536.438
571.220;37348.020;   -8.747;51186.098
571.803;38724.438;   -8.868;51032.762
572.386;40769.137;  -10.608;49609.887
572.969;40824.203;  -10.548;48285.926
573.552;38896.027;   -7.898;47624.285
574.135;39798.492;   -9.918;45498.641
574.718;36037.379;  -10.328;41970.434
575.301;33300.344;   -9.548;41447.137
575.884;30563.313;   -8.768;40923.836
576.467;33648.297;   -9.858;45267.723
577.050;33602.582;  -11.018;48175.543
577.633;34298.730;  -10.048;47729.328
578.216;33792.176;  -10.268;47579.793
578.799;31144.691;  -11.808;47820.996
579.381;31333.055;   -7.338;48115.551
579.964;34264.410;   -9.728;47333.766
580.547;35620.480;   -8.928;46668.969
581.129;36902.891;   -9.149;44466.141
581.712;37205.125;  -11.359;44164.922
582.294;34840.570;  -10.738;46477.855
582.877;33292.688;   -8.788;48244.254
583.459;33570.703;   -9.859;47437.895
584.042;35992.324;   -9.649;46943.219
584.624;35785.777;  -10.529;46792.227
585.206;34152.891;  -10.298;46557.250
585.789;33653.410;  -11.029;45793.773
586.371;31727.305;   -9.359;43836.391
586.953;31042.840;   -8.799;42972.492
587.536;30738.955;   -8.928;42487.211
588.118;30491.713;   -9.180;42086.414
588.700;30210.957;  -10.519;43389.930
589.282;29532.760;   -8.098;43646.039
589.864;29911.141;   -8.139;43438.109
590.446;31480.707;  -10.509;43151.926
591.028;31631.105;  -11.119;42781.867
591.610;33333.957;  -10.019;42839.098
592.192;33502.887;   -8.838;42820.402
592.774;30245.643;  -11.549;40724.277
593.356;27187.111;  -11.609;39874.789
593.937;26366.705;  -10.019;39980.648
594.519;28791.111;   -7.839;42069.633
595.101;31262.328;  -10.779;42976.031
595.683;32477.365;  -10.049;44084.441
596.264;32326.070;   -9.969;43478.797
596.846;31790.855;   -9.699;43803.672
597.427;30611.721;  -10.970;42986.934
598.009;30042.410;  -13.090;42832.219
598.591;29546.752;   -9.509;42580.086
599.172;30076.277;   -9.019;43061.805
599.753;30768.590;  -13.310;41691.469
600.335;31441.582;  -11.010;40692.520
600.916;30750.670;  -10.309;39982.422
601.498;29439.426;   -8.209;40318.617
602.079;28939.654;  -11.440;40670.609
602.660;30194.932;   -8.690;41450.898
603.241;30626.236;  -12.759;41137.738
603.823;28154.709;  -10.409;38868.797
604.404;26554.607;  -11.790;38182.785
604.985;28534.924;  -10.280;38078.047
605.566;31445.178;   -8.059;38056.633
606.147;30187.285;   -8.960;37020.418
606.728;28580.328;  -10.710;37883.359
607.309;28326.367;  -12.760;38748.273
607.890;27069.098;   -9.959;38850.230
608.471;27221.943;   -9.780;37457.918
609.051;28813.299;   -8.940;36066.457
609.632;29589.002;  -12.070;35991.074
610.213;29705.016;   -9.610;37402.641
610.794;30170.631;   -8.750;38383.363
611.374;30704.906;  -11.100;40562.387
611.955;31207.857;  -12.200;38533.727
612.536;31289.223;  -10.410;36951.789
613.116;30291.916;  -10.010;37197.891
613.697;28748.887;  -10.480;38411.125
614.277;28846.570;  -12.751;38673.938
614.858;28102.943;  -11.600;37075.863
615.438;27869.635;   -8.190;35092.906
616.019;26422.426;   -8.941;33666.301
616.599;28378.441;  -13.540;34189.023
617.179;31507.438;  -10.890;36952.047
617.760;30877.316;   -7.610;39582.574
618.340;28699.355;  -14.441;38943.977
618.920;28155.078;   -9.180;37594.156
619.500;30345.410;  -11.881;37866.938
620.080;32017.057;   -9.870;37869.043
620.660;30644.859;  -13.211;36868.617
621.241;29296.016;  -11.921;36352.309
621.821;29020.773;  -10.271;35459.520
622.401;30284.531;   -8.200;35207.414
622.980;31581.494;  -11.141;35980.422
623.560;30633.857;  -14.321;37351.328
624.140;29139.918;   -9.360;34388.582
624.720;25383.885;   -7.481;32368.764
625.300;23023.814;  -12.730;32638.629
625.880;26667.791;  -11.441;34599.035
626.459;30026.340;  -10.971;36831.738
627.039;33745.773;   -9.011;38299.098
627.619;34363.238;   -8.521;38289.574
628.198;32463.346;   -9.861;37220.695
628.778;31270.844;   -8.841;37632.563
629.357;31580.340;   -9.891;38003.012
629.937;32011.582;  -11.871;38402.039
630.516;31565.863;  -10.641;37868.801
631.096;33282.246;  -11.391;35760.410
631.675;34726.188;   -6.622;35225.219
632.254;31776.389;  -13.002;35130.289
632.834;30669.688;  -11.622;35794.570
633.413;31563.459;   -8.321;35788.922
633.992;29803.199;   -7.732;34532.863
634.571;29719.500;  -10.992;33590.113
635.151;29271.414;  -10.422;34943.863
635.730;30511.631;  -11.511;35352.523
636.309;31063.500;   -7.901;35366.605
636.888;30068.377;  -11.452;36165.637
637.467;28820.492;  -10.672;37515.902
638.046;29242.363;   -9.301;39288.695
638.625;30641.203;  -11.452;38279.699
639.204;31378.471;  -12.262;37741.598
639.782;31579.941;  -11.892;38364.551
640.361;30360.461;  -11.411;36740.621
640.940;25534.715;  -11.501;34950.082
641.519;27623.650;  -10.921;34137.398
642.097;31333.299;  -10.101;35654.258
642.676;30222.090;  -10.821;35637.957
643.255;31330.354;   -8.631;36567.074
643.833;33633.004;  -11.411;37809.434
644.412;36349.293;  -12.021;37337.293
644.990;36758.020;  -12.271;37018.531
645.569;35594.250;   -9.741;36518.469
646.147;32978.027;   -9.051;36186.430
646.726;32868.980;  -13.861;36267.688
647.304;33266.707;   -9.461;36647.625
647.882;33010.359;  -13.171;39286.742
648.461;33504.328;  -11.911;39157.703
649.039;32055.035;   -9.541;35412.883
649.617;31023.303;   -8.901;34744.918
650.195;29000.117;   -8.591;35403.098
650.773;28445.920;  -13.031;35053.797
651.352;27529.732;  -12.211;33756.816
651.930;25445.670;  -11.361;31868.773
652.508;22341.100;   -8.601;33121.551
653.086;24861.367;   -9.991;33564.793
653.663;29361.555;  -11.931;34054.668
654.241;31652.707;  -10.821;35693.309
654.819;33181.215;   -9.341;36422.906
655.397;30917.064;  -10.851;38213.484
655.975;29575.557;  -11.461;39507.625
656.553;29704.912;   -8.841;39498.223
657.130;29285.729;  -10.371;40395.480
657.708;29973.301;  -11.071;39242.020
658.286;29515.912;  -11.141;38920.020
658.863;30387.953;  -10.861;40202.898
659.441;34418.574;  -11.181;39677.938
660.018;34699.508;  -10.851;40413.355
660.596;34430.766;  -12.571;39931.414
661.173;34743.277;  -12.141;39604.531
661.750;34604.543;  -11.571;39700.070
662.328;32023.152;  -10.780;39292.809
662.905;29463.797;  -10.750;38235.648
663.482;26288.619;  -11.320;36212.305
664.060;25614.445;  -10.160;35944.945
664.637;30416.471;  -13.120;35170.785
665.214;32537.600;  -11.500;34197.523
665.791;30755.445;  -12.430;34549.520
666.368;28447.912;   -9.840;35118.578
666.945;27760.949;  -11.290;36019.418
667.522;28440.957;  -13.540;36048.438
668.099;28915.029;  -10.250;36243.914
668.676;28013.996;  -11.270;35958.875
669.253;27034.039;   -8.210;37384.730
669.830;26294.502;   -9.710;36779.629
670.407;25596.957;   -9.700;35231.289
670.984;26159.563;   -9.190;35544.270
671.560;25558.152;   -9.560;35466.867
672.137;25258.994;  -11.820;34280.863
672.714;27971.521;  -12.460;34632.863
673.290;32384.547;  -10.940;35135.422
673.867;33124.785;  -10.510;36114.480
674.443;29727.797;  -12.110;36152.859
675.020;30923.752;  -11.760;35327.238
675.596;31710.574;   -9.380;35795.176
676.173;30204.754;  -11.120;35430.355
676.749;29193.041;  -13.390;33549.516
677.326;28620.459;  -12.600;32210.012
677.902;27616.328;  -10.830;32068.871
678.478;27748.670;  -12.400;32583.891
679.054;29848.688;   -8.610;32088.928
679.631;29985.563;  -11.640;30978.848
680.207;29756.164;   -8.140;33160.887
680.783;30673.029;  -12.300;35570.363
681.359;29546.801;  -10.910;36125.184
681.935;29717.705;  -11.040;35240.922
682.511;30679.072;  -11.130;34429.961
683.087;31110.139;  -11.080;34463.680
683.663;33393.844;  -10.530;34648.898
684.239;33037.219;  -12.120;34546.457
684.815;30368.525;   -8.870;35586.375
685.390;29589.002;   -8.940;35821.895
685.966;29565.006;  -12.109;35085.871
686.542;28415.547;  -13.539;34198.230
687.118;28266.643;  -10.379;32847.707
687.693;28618.107;  -10.189;32794.027
688.269;27472.439;  -12.939;33072.367
688.844;26428.264;   -8.679;33141.664
689.420;27234.203;  -10.919;33965.742
689.995;27545.594;   -7.489;34655.523
690.571;26976.428;  -12.199;33576.742
691.146;26956.945;   -8.979;32657.219
691.722;28271.992;   -9.119;32526.979
692.297;26860.527;  -10.519;33014.617
692.872;26704.314;  -10.629;34012.254
693.448;27463.715;  -12.119;34237.434
694.023;28106.906;   -8.219;34142.672
694.598;26126.484;  -13.209;34132.031
695.173;25085.307;  -11.879;34205.250
695.748;25862.416;  -12.039;32882.488
696.323;25519.424;  -11.779;32864.906
696.898;26303.057;  -10.219;33170.004
697.473;27362.543;  -13.639;32432.984
698.048;27859.920;  -11.239;31649.303
698.623;30126.475;  -10.859;30778.141
699.198;32000.563;  -13.379;31140.119
699.773;32693.047;  -13.409;31764.299
700.348;33131.410;  -12.329;31780.816
700.922;33680.965;   -8.749;32046.375
701.497;33894.516;  -12.449;32603.574
702.072;32822.574;   -8.879;34799.871
702.646;30599.676;  -10.719;35793.172
703.221;29019.523;   -8.469;35201.590
703.795;28804.938;  -11.389;34764.527
704.370;28918.471;  -12.499;34307.367
704.944;28747.248;  -11.449;33509.887
705.519;27893.082;  -10.659;31388.584
706.093;27235.912;  -12.909;31340.104
706.668;27276.656;  -13.509;32630.281
707.242;26424.965;  -10.049;32728.779
707.816;24534.398;  -10.629;32947.238
708.390;24191.668;  -11.829;33277.855
708.965;24583.119;  -11.159;33834.336
709.539;25552.385;  -11.069;33709.273
710.113;25061.324;  -10.908;33044.313
710.687;23710.148;   -9.488;31953.992
711.261;23772.145;  -13.068;30505.949
711.835;26535.037;  -12.748;30262.369
712.409;27561.145;  -10.678;31254.447
712.983;26746.666;  -11.658;32754.986
713.557;27533.084;  -13.718;34018.824
714.131;28214.236;  -13.388;34579.625
714.704;28236.639;   -9.818;33890.262
715.278;28647.000;  -11.818;33531.102
715.852;29607.158;  -11.328;33601.660
716.425;29823.258;   -9.118;33515.117
716.999;29854.639;  -10.188;33185.555
717.573;30294.748;   -9.808;33905.996
718.146;33144.156;  -11.478;35199.293
718.720;33334.559;  -10.998;35060.551
719.293;31218.158;   -9.508;34973.230
719.867;30398.238;  -12.138;36394.449
720.440;29089.316;  -11.288;36663.008
721.013;31456.264;  -11.428;35102.426
721.587;32340.361;  -11.698;33985.266
722.160;33086.445;  -11.608;33524.965
722.733;32225.596;  -11.428;32987.043
723.306;31659.953;  -12.518;33066.301
723.880;32085.238;   -7.408;33399.500
724.453;31065.344;  -11.048;33468.297
725.026;29534.162;  -11.678;33816.637
725.599;28106.977;  -10.978;32797.996
726.172;27277.590;   -8.838;33187.434
726.745;28093.580;  -11.438;35136.613
727.318;28564.688;   -9.828;35751.730
727.891;26902.832;  -10.868;35890.430
728.463;25230.354;  -11.348;34822.090
729.036;24032.377;  -11.608;32895.086
729.609;24250.109;  -14.738;31823.225
730.182;25237.340;   -8.448;31445.283
730.754;26274.348;  -11.228;32373.223
731.327;26387.934;  -12.018;33676.820
731.900;28124.691;  -13.748;33417.000
732.472;28140.803;  -10.928;31978.498
733.045;26795.109;   -9.478;30368.777
733.617;25341.672;  -12.967;30574.215
734.190;24375.477;  -11.707;31280.975
734.762;23065.924;  -11.067;31674.412
735.334;22521.750;  -10.587;31247.291
735.907;21947.502;  -11.947;29876.211
736.479;22489.365;  -11.667;29808.488
737.051;24931.621;  -10.187;30233.547
737.623;27232.750;   -6.887;31469.086
738.195;29892.916;  -12.117;31784.225
738.768;31714.990;  -14.077;32120.523
739.340;31333.951;  -12.207;32094.342
739.912;28277.191;   -8.977;31312.680
740.484;26160.721;  -11.017;31946.238
741.056;26784.273;  -13.517;32984.059
741.628;28785.104;  -11.507;33897.715
742.199;29123.607;   -7.597;33213.016
742.771;29766.174;  -12.227;31369.113
743.343;29414.465;  -12.427;31865.473
743.915;28065.463;   -9.827;32388.631
744.487;27119.779;  -10.007;31079.568
745.058;25453.344;  -11.887;30570.107
745.630;24573.926;  -10.787;29970.127
746.201;23781.887;  -10.887;29186.766
746.773;23433.117;   -9.707;28805.723
747.344;24163.160;  -11.137;29591.223
747.916;24551.957;  -11.887;31412.201
748.487;24074.473;   -9.707;32194.898
749.059;23529.260;  -10.027;32533.719
749.630;23318.725;  -11.787;32158.518
750.201;22179.053;  -12.767;30855.395
750.773;21773.838;  -11.497;28622.555
751.344;22566.258;   -9.937;28405.732
751.915;23114.795;  -11.567;28461.551
752.486;22611.662;  -13.267;27842.850
753.057;20546.631;  -10.627;27845.008
753.628;19054.430;  -11.657;27728.107
754.199;21357.297;  -12.097;27381.086
754.770;23072.473;  -11.447;25882.203
755.341;22991.451;  -11.997;25886.184
755.912;20698.719;  -10.207;26050.861
756.483;18951.420;  -10.937;26798.779
757.054;18764.615;  -11.527;27048.238
757.625;19092.389;  -12.886;26294.838
758.195;19615.564;  -11.226;26142.076
758.766;19705.596;  -12.366;26392.234
759.337;18569.693;  -11.946;26334.594
759.907;18669.510;  -13.856;27579.652
760.478;19548.518;   -9.606;28352.770
761.048;19249.508;  -11.606;27325.088
761.619;19237.332;  -11.036;26460.428
762.189;18811.389;  -12.206;26029.826
762.760;20264.727;   -9.666;26430.145
763.330;21249.188;   -9.796;26670.902
763.900;19360.299;  -10.896;26603.021
764.471;17763.170;  -11.726;25542.740
765.041;18234.736;   -9.656;24358.459
765.611;19143.859;  -11.276;23991.297
766.181;18887.457;  -12.116;24470.236
766.751;18320.648;  -12.376;24845.975
767.321;18298.064;  -11.626;24533.633
767.891;18559.693;  -10.426;24916.492
768.461;17528.914;  -13.456;24776.771
769.031;15473.591;  -11.616;24757.988
769.601;15213.573;  -11.356;24181.088
770.171;15506.119;  -11.586;23670.387
770.741;15966.531;  -12.696;22960.045
771.311;15947.611;  -10.226;22917.523
771.880;15652.368;  -11.146;23562.941
772.450;16488.957;  -11.716;24216.500
773.020;16943.029;  -13.226;24140.398
773.589;16655.832;  -12.586;24414.857
774.159;16361.087;  -10.246;23858.717
774.729;15805.867;  -11.586;22942.135
775.298;14848.251;  -15.926;22324.033
775.867;14816.157;  -10.426;21140.313
776.437;14770.951;  -11.416;20838.092
777.006;13472.488;  -12.766;20599.510
777.576;13373.662;  -13.666;20508.809
778.145;13647.837;  -10.066;20732.947
778.714;13244.535;  -10.276;21062.465
779.283;13549.640;  -12.086;20949.664
779.853;14885.824;  -14.016;20508.623
780.422;15441.718;  -12.376;20649.082
780.991;14431.900;   -9.246;21527.520
781.560;13495.912;   -9.775;22632.658
782.129;13355.548;  -12.495;23048.277
782.698;13144.379;  -11.775;23438.555
783.267;13469.611;  -10.065;23267.734
783.836;14143.315;  -12.455;22415.133
784.404;14927.676;  -13.385;20443.152
784.973;15673.992;  -11.045;19699.150
785.542;15133.420;   -9.505;19763.828
786.111;14137.781;   -9.385;20341.408
786.679;14077.720;  -13.475;20207.967
787.248;14110.422;  -11.245;19516.465
787.817;12133.238;  -12.485;18900.363
788.385;10369.518;  -11.165;17879.121
788.954;11083.399;  -11.755;17658.301
789.522;12053.857;   -9.625;17788.879
790.090;11743.161;   -9.665;18118.277
790.659;11245.928;   -9.295;18338.736
791.227;12217.221;  -12.175;18508.615
791.795;13709.413;  -12.145;17898.254
792.364;13573.984;  -11.575;17295.133
792.932;12228.033;  -11.085;16822.051
793.500;11049.310;  -11.345;17040.148
794.068;10831.369;  -12.565;17179.787
794.636;11729.978;  -12.105;16664.246
795.204;12216.356;  -11.995;16524.545
795.772;11695.076;  -12.615;17274.564
796.340;11353.264;  -12.425;17891.002
796.908;11160.426;  -11.455;17648.561
797.476;10649.412;  -12.165;17064.080
798.044;10338.632;  -15.795;16672.777
798.612;10399.347;  -10.985;17023.996
799.180;11026.367;  -12.055;16561.615
799.747;11419.390;  -12.525;15962.773
800.315;10320.313;  -14.765;15296.992
800.883; 9049.901;  -12.435;14801.771
801.450; 8845.222;  -11.295;14534.430
802.018; 9308.932;  -11.185;14173.248
802.585; 9301.564;  -11.625;14029.547
803.153; 8340.189;  -10.665;13836.846
803.720; 7966.170;  -10.275;13567.324
804.287; 7877.933;  -12.865;13360.622
804.855; 8109.639;  -12.324;13681.981
805.422; 8408.842;  -11.574;13536.560
805.989; 8257.178;  -11.004;13355.958
806.556; 8499.673;  -12.214;13747.896
807.124; 8929.501;  -13.304;13987.376
807.691; 8649.733;  -12.034;14038.674
808.258; 7938.980;  -11.014;14120.152
808.825; 7825.270;  -11.804;13860.111
809.392; 7757.538;  -11.544;13268.790
809.959; 7593.327;  -14.954;12680.389
810.526; 7974.112;  -10.214;12427.308
811.093; 8527.283;  -10.754;12030.105
811.659; 8149.480;  -12.194;11653.664
812.226; 6944.212;   -9.194;11637.183
812.793; 6583.784;   -9.644;11611.521
813.360; 7388.269;  -11.544;11885.181
813.926; 8239.224;  -12.814;12770.539
814.493; 8227.774;  -11.524;12677.638
815.060; 7925.680;  -12.254;11974.336
815.626; 7475.402;  -12.114;11594.715
816.193; 7115.719;  -11.994;11579.474
816.759; 6986.258;  -11.464;11666.972
817.325; 6674.457;  -10.444;11325.530
817.892; 6329.470;  -11.124;11105.369
818.458; 6172.474;  -11.864;10843.928
819.024; 6419.822;  -10.634;10714.406
819.591; 6512.647;  -10.554;10469.165
820.157; 6797.027;  -13.334;10235.523
820.723; 7110.992;  -13.044;10847.563
821.289; 7262.867;   -9.664;11040.980
821.855; 7452.499;  -10.994;10357.100
822.421; 7453.409;  -11.784; 9978.918
822.987; 7386.540;  -12.554; 9754.177
823.553; 7798.337;  -12.554;10065.755
824.119; 7663.134;   -8.544;10036.294
824.685; 6688.808;  -12.144;10029.192
825.251; 6090.615;  -12.754;10199.230
825.816; 5672.292;  -11.354; 9820.189
826.382; 5455.882;  -11.004; 9297.248
826.948; 5535.346;  -11.004; 9381.347
827.513; 5449.350;  -12.474; 9450.726
828.079; 5402.840;  -13.084; 9472.444
828.645; 5542.820;  -10.813; 9292.643
829.210; 5281.057;  -11.593; 9065.341
829.776; 5178.623;  -12.633; 9132.620
830.341; 5217.403;  -10.473; 9092.878
830.906; 5028.421;   -8.763; 9078.557
831.472; 4746.085;  -13.453; 8534.535
832.037; 4163.620;  -12.173; 8677.874
832.602; 3932.932;  -14.093; 8628.692
833.167; 4175.954;  -13.593; 8879.031
833.733; 4694.486;  -10.793; 9189.790
834.298; 5100.541;  -14.783; 9052.608
834.863; 4743.093;  -11.023; 8895.087
835.428; 4499.793;  -11.113; 8824.266
835.993; 4936.341;   -9.983; 8845.385
836.558; 5170.260;  -13.003; 8888.563
837.123; 4972.278;  -10.733; 8966.582
837.688; 4587.555;   -9.683; 8617.860
838.253; 4423.215;  -12.253; 8590.699
838.817; 4411.520;  -11.643; 8443.797
839.382; 4340.276;  -11.953; 8799.356
839.947; 4443.286;  -11.443; 8810.595
840.511; 4831.466;  -10.843; 8796.394
841.076; 5114.111;  -13.533; 8347.231
841.641; 4928.913;  -11.743; 8224.330
842.205; 4362.263;  -10.013; 8223.349
842.770; 4017.865;  -11.023; 8622.107
843.334; 4100.777;  -14.273; 8410.386
843.898; 4494.270;  -11.323; 8337.465
844.463; 4879.878;  -10.263; 8506.283
845.027; 5045.982;  -10.353; 8280.962
845.591; 4976.737;  -12.163; 8231.141
846.156; 4817.293;  -12.263; 7969.179
846.720; 4773.764;  -11.553; 7768.278
847.284; 4574.669;  -12.393; 7630.957
847.848; 3817.635;  -12.623; 7472.395
848.412; 3229.879;  -11.863; 7437.394
848.976; 3172.231;  -10.203; 7674.592
849.540; 3388.247;  -10.603; 7836.011
850.104; 3607.363;  -12.423; 7913.669
850.668; 3639.776;  -14.613; 7694.508
851.232; 3682.856;  -12.873; 7756.887
851.796; 3929.514;  -14.192; 7926.545
852.359; 4096.432;  -13.652; 7827.844
852.923; 4000.928;  -11.402; 7641.163
853.487; 3669.790;  -12.022; 7342.501
854.050; 3488.363;  -15.202; 7042.820
854.614; 3501.239;  -14.592; 7151.338
855.177; 3465.541;  -12.572; 7105.077
855.741; 3464.313;   -9.932; 6989.675
856.304; 3363.683;  -12.192; 6596.634
856.868; 3214.819;  -13.462; 6356.272
857.431; 3227.477;  -11.542; 6468.571
857.995; 3357.681;  -12.062; 6373.210
858.558; 3201.750;  -11.142; 6324.448
859.121; 3056.753;  -11.742; 6408.327
859.684; 3088.196;  -10.332; 6347.886
860.247; 3167.079;  -11.962; 6321.264
860.810; 3217.626;  -12.332; 6301.903
861.374; 3101.510;  -10.292; 6607.881
861.937; 2943.899;  -12.062; 6408.200
862.500; 2987.435;  -11.702; 6572.639
863.062; 3139.515;  -13.852; 6387.297
863.625; 3214.568;  -12.972; 6190.836
864.188; 3181.716;  -10.292; 5807.254
864.751; 3139.184;  -12.382; 5682.413
865.314; 2935.942;  -13.232; 5547.492
865.876; 2586.317;  -12.772; 5500.150
866.439; 2304.637;  -11.952; 5415.909
867.002; 2358.887;   -9.332; 5501.567
867.564; 2685.752;  -11.712; 5413.946
868.127; 2849.846;  -12.012; 5160.325
868.689; 2532.876;  -11.882; 5133.183
869.252; 2182.083;  -11.572; 5252.382
869.814; 2077.456;  -10.692; 5297.141
870.377; 2128.194;  -12.392; 5390.919
870.939; 2183.830;  -10.582; 5599.898
871.501; 2209.465;  -12.782; 5248.336
872.063; 2231.439;  -15.612; 4854.235
872.626; 2295.848;  -13.922; 4817.074
873.188; 2294.158;  -13.832; 4987.732
873.750; 2247.200;  -10.962; 4868.651
874.312; 2290.423;  -11.022; 4779.330
874.874; 2335.474;  -13.152; 4866.348
875.436; 2265.179;  -13.401; 4718.887
875.998; 2170.628;   -8.891; 4660.005
876.560; 2084.796;  -12.591; 4462.964
877.122; 2012.231;  -14.531; 4145.042
877.683; 1957.154;  -10.781; 4056.481
878.245; 1853.726;  -14.281; 3950.740
878.807; 1790.617;  -10.311; 4058.958
879.369; 1735.262;  -13.201; 3954.677
879.930; 1681.916;  -12.061; 3941.495
880.492; 1667.921;   -9.181; 4067.014
881.053; 1688.740;  -12.051; 3859.633
881.615; 1665.676;  -11.501; 3776.071
882.176; 1583.188;  -12.221; 3734.750
882.738; 1481.372;   -8.931; 3678.489
883.299; 1411.680;  -13.571; 3405.407
883.860; 1417.439;  -12.331; 3351.106
884.422; 1356.979;  -10.201; 3394.044
884.983; 1219.801;  -12.521; 3166.443
885.544; 1099.140;  -12.291; 3189.802
886.105; 1038.129;  -12.991; 3160.360
886.666; 1022.872;  -12.901; 3093.059
887.227; 1015.644;  -12.061; 2941.957
887.788;  990.459;  -11.641; 2974.836
888.349;  938.276;  -14.691; 2721.214
888.910;  888.729;   -9.681; 2696.493
889.471;  885.532;   -9.971; 2560.172
890.032;  899.905;  -13.151; 2558.190
890.593;  880.041;  -12.051; 2567.669
891.153;  834.990;  -12.841; 2460.307
891.714;  797.339;  -13.561; 2372.046
892.275;  762.803;  -12.401; 2309.505
892.835;  724.924;  -13.191; 2382.543
893.396;  686.299;  -12.551; 2295.502
893.956;  665.157;  -11.981; 2162.420
894.517;  648.609;  -12.221; 2125.439
895.077;  614.442;  -12.021; 2086.978
895.638;  553.751;  -10.891; 2126.316
896.198;  496.169;  -13.171; 1838.275
896.758;  461.260;  -11.891; 1892.813
897.319;  438.770;  -12.491; 1792.232
897.879;  424.795;  -12.401; 1762.751
898.439;  394.212;  -13.431; 1661.149
898.999;  374.322;  -11.340; 1781.468
899.559;  364.300;  -13.930; 1703.347
900.119;  344.076;  -13.730; 1537.525
900.679;  324.635;   -9.210; 1638.384
901.239;  307.004;  -10.860; 1527.902
901.799;  288.885;  -11.450; 1456.441
902.359;  269.356;  -13.800; 1357.140
902.919;  263.040;  -12.130; 1331.118
903.479;  265.094;  -12.650; 1317.257
904.038;  259.507;  -16.110; 1262.595
904.598;  245.448;  -13.690; 1152.034
905.158;  232.578;  -10.290; 1240.893
905.717;  225.701;  -10.670; 1233.691
906.277;  225.463;  -14.040; 1217.330
906.836;  225.601;  -13.510; 1222.408
907.396;  220.810;  -11.530; 1193.047
907.955;  208.131;  -13.190; 1182.526
908.515;  196.768;  -12.950; 1099.364
909.074;  187.349;  -12.390; 1092.863
909.633;  183.022;  -10.340; 1069.121
910.192;  181.114;  -11.170; 1196.460
910.752;  175.923;  -14.200; 1029.960
911.311;  170.810;  -13.810; 1009.780
911.870;  167.383;  -12.750;  971.460
912.429;  166.520;  -12.380; 1094.080
912.988;  163.611;  -11.930; 1081.060
913.547;  157.944;  -10.990;  940.380
914.106;  154.909;  -11.200;  999.420
914.665;  153.131;  -13.150;  984.020
915.224;  151.256;  -13.310; 1035.760
915.782;  149.851;  -13.340;  922.560
916.341;  148.907;  -10.710; 1049.840
916.900;  145.540;  -12.980;  925.260
917.458;  144.496;  -13.060;  884.220
918.017;  142.592;  -10.900;  942.600
918.576;  141.858;  -11.630;  904.440
919.134;  141.551;  -12.860;  837.980
919.693;  141.545;  -15.160;  893.060
920.251;  141.346;  -13.470;  876.500
920.809;  141.599;  -13.700;  839.580
921.368;  140.807;  -13.420;  885.360
921.926;  141.493;  -14.710;  842.940
922.484;  141.420;  -12.560;  903.360
923.042;  140.977;  -11.930;  880.340
923.601;  142.435;  -10.270;  998.680
924.159;  140.493;  -12.960;  935.560
924.717;  139.943;  -13.040;  841.080
925.275;  142.521;  -12.560;  903.240
925.833;  144.049;  -13.040;  779.320
926.391;  145.835;  -13.360;  938.380
926.949;  143.816;  -13.940;  857.680
927.506;  145.760;   -9.400;  903.500
928.064;  144.644;  -10.940;  877.580
928.622;  143.636;  -13.180;  880.100
929.180;  144.420;  -12.730;  814.180
929.737;  145.769;  -12.840;  808.540
930.295;  148.927;  -11.810;  928.480
930.853;  152.576;  -13.650;  849.100
931.410;  155.099;  -13.580;  821.120
931.968;  157.273;  -12.020;  940.660
932.525;  158.700;  -13.320;  909.380
933.082;  160.724;  -13.800;  811.440
933.640;  165.654;  -11.380;  925.900
934.197;  168.185;  -11.480;  886.360
934.754;  172.437;  -13.220;  897.780
935.312;  171.514;  -14.950;  863.340
935.869;  167.578;  -10.940; 1012.980
936.426;  162.451;  -12.100;  872.800
936.983;  162.236;  -12.930;  889.020
937.540;  163.716;  -14.250;  838.280
938.097;  168.626;  -12.600;  940.120
938.654;  174.756;  -11.260;  898.860
939.211;  179.417;  -13.020;  952.480
939.768;  184.119;  -15.760;  915.420
940.324;  190.189;  -13.920;  904.200
940.881;  188.292;  -11.620;  878.500
941.438;  185.510;   -9.870; 1021.200
941.995;  180.361;  -13.920;  992.560
942.551;  168.205;  -12.830;  875.620
943.108;  156.610;  -11.980;  937.920
943.664;  145.184;  -13.740;  869.340
944.221;  138.926;  -12.670; 1088.140
944.777;  132.618;  -13.250;  869.680
945.334;  135.081;  -13.000;  884.840
945.890;  142.011;  -13.020;  946.480
946.446;  149.381;  -13.880;  947.020
947.003;  156.107;  -12.660;  964.940
947.559;  160.318;   -8.730; 1063.040
948.115;  160.269;  -11.960; 1026.540
948.671;  158.490;  -12.360;  967.300
949.227;  155.798;  -12.700;  859.560
949.783;  154.594;  -13.450;  858.900
950.339;  153.691;  -10.620;  991.000
950.895;  151.498;  -14.770; 1023.840
951.451;  149.037;  -13.650;  925.280
952.007;  150.269;  -11.180;  998.540
952.563;  148.547;  -11.680;  937.780
953.118;  148.225;  -13.280;  904.940
953.674;  151.693;  -12.510;  935.780
954.230;  151.920;  -12.220;  949.640
954.785;  148.803;  -12.190;  936.640
955.341;  142.902;  -12.270;  998.160
955.897;  137.561;  -14.900;  834.660
956.452;  138.013;  -12.520;  953.840
957.008;  138.684;   -9.410; 1083.640
957.563;  137.611;  -11.280; 1009.540
958.118;  134.915;  -13.470;  877.700
958.674;  135.913;  -12.190;  946.780
959.229;  138.558;  -12.760; 1013.980
959.784;  143.513;  -15.710;  832.400
960.339;  150.702;  -12.540; 1001.280
960.894;  152.195;  -11.680;  963.760
961.449;  147.248;  -11.410;  859.960
962.004;  146.465;  -10.430; 1212.840
962.559;  140.461;  -14.040;  860.140
963.114;  137.658;  -14.270;  742.480
963.669;  138.827;  -11.320;  915.500
964.224;  137.640;  -14.620;  874.340
964.779;  135.483;  -14.150;  828.420
965.334;  136.234;  -10.850; 1017.860
965.888;  134.932;  -14.530;  875.360
966.443;  136.003;  -13.520;  972.380
966.998;  132.356;  -13.370;  819.460
967.552;  129.325;   -9.960;  908.380
968.107;  124.611;  -12.360;  868.300
968.661;  125.984;  -12.270;  922.440
969.216;  124.702;  -12.140;  856.280
969.770;  125.676;  -11.860;  917.200
970.324;  125.670;  -12.170;  923.140
970.879;  123.919;  -14.160;  947.180
971.433;  121.507;  -12.940;  952.720
971.987;  117.446;  -10.180;  895.340
972.541;  117.197;  -12.130;  917.100
973.095;  117.291;  -14.980; 1009.460
973.649;  115.247;  -14.480;  809.480
974.203;  116.901;  -13.530;  829.040
974.757;  117.876;  -12.060;  855.220
975.311;  116.524;  -13.240;  872.600
975.865;  114.028;  -12.550;  881.820
976.419;  112.813;  -13.180;  857.400
976.973;  112.699;  -14.100;  849.620
977.526;  112.413;  -13.330;  949.920
978.080;  108.730;  -15.390;  796.780
978.634;  108.526;  -11.670;  921.320
979.187;  105.402;  -10.640;  905.400
979.741;  105.147;  -13.330; 1018.380
980.294;  102.074;  -14.480;  789.160
980.848;   99.584;  -13.420;  717.220
981.401;   97.517;  -12.360;  816.540
981.955;   95.577;  -12.480;  844.300
982.508;   91.724;  -14.000;  746.340
983.061;   91.811;  -10.440;  915.260
983.615;   87.723;  -14.340;  798.800
984.168;   85.420;  -14.950;  770.080
984.721;   85.658;  -13.270;  880.760
985.274;   83.592;  -12.240;  867.500
985.827;   80.093;  -12.720;  834.220
986.380;   77.202;  -14.920;  721.340
986.933;   77.197;  -12.860;  864.800
987.486;   74.613;  -10.440;  861.920
988.039;   75.513;  -11.820;  863.100
988.591;   73.647;  -13.760;  893.260
989.144;   71.399;  -14.080;  737.260
989.697;   72.675;  -13.440;  758.740
990.250;   73.517;  -12.050;  858.100
990.802;   72.037;  -14.550;  755.860
991.355;   72.213;  -10.770;  974.880
991.907;   69.677;  -11.710;  864.320
992.460;   67.142;  -12.650;  753.760
993.012;   66.336;  -13.860;  749.540
993.565;   64.324;  -14.310;  711.360
994.117;   63.991;   -9.920;  950.780
994.669;   61.024;  -13.420;  701.320
995.221;   59.954;  -14.200;  791.920
995.774;   59.472;  -13.400;  787.580
996.326;   58.454;  -11.850;  740.220
996.878;   57.713;  -12.230;  838.420
997.430;   56.409;  -14.260;  699.860
997.982;   55.463;  -11.430;  750.140
998.534;   56.050;  -11.590;  739.060
999.086;   54.885;  -11.960;  738.220
999.638;   54.380;  -13.640;  661.380
1000.190;   53.657;  -13.660;  699.320
1000.741;   52.252;   -9.980;  742.700
1001.293;   52.444;  -11.860;  686.020
1001.845;   51.180;  -14.280;  676.640
1002.396;   51.696;  -12.270;  743.400
1002.948;   50.786;  -13.670;  737.400
1003.500;   49.074;  -12.010;  723.780
1004.051;   50.666;  -11.890;  907.580
1004.603;   49.435;  -11.220;  791.820
1005.154;   45.161;  -13.210;  608.980
1005.705;   44.903;  -11.850;  723.960
1006.257;   44.669;  -13.670;  707.220
1006.808;   43.588;  -12.060;  685.460
1007.359;   43.152;  -10.250;  763.240
1007.910;   41.083;  -13.440;  646.640
1008.461;   41.338;  -13.170;  732.940
1009.013;   39.995;  -14.590;  588.340
1009.564;   41.021;  -12.100;  793.520
1010.115;   38.997;  -14.000;  597.040
1010.665;   39.175;  -15.020;  602.160
1011.216;   39.558;  -12.560;  667.920
1011.767;   38.061;  -11.330;  697.920
1012.318;   39.165;  -11.450;  736.980
1012.869;   38.475;  -11.000;  679.000
1013.419;   37.716;  -11.760;  603.120
1013.970;   38.441;  -11.800;  666.640
1014.521;   36.786;  -14.750;  620.620
1015.071;   37.084;  -14.430;  670.380
1015.622;   36.714;  -14.170;  635.460
1016.172;   36.178;  -11.700;  596.820
1016.723;   35.547;  -13.230;  614.380
1017.273;   35.399;  -16.120;  604.160
1017.823;   35.825;  -13.360;  650.340
1018.374;   35.080;  -13.710;  611.760
1018.924;   35.417;  -11.050;  716.880
1019.474;   35.169;  -14.120;  718.880
1020.024;   33.970;  -12.990;  657.580
1020.574;   34.582;  -12.010;  726.160
1021.124;   34.525;  -12.080;  673.580
1021.674;   33.136;  -15.860;  559.120
1022.224;   34.491;  -11.710;  708.940
1022.774;   33.320;  -13.030;  668.820
1023.324;   33.949;  -11.000;  753.520
1023.874;   35.326;  -13.270;  875.760
1024.423;   32.832;  -14.570;  613.700
1024.973;   32.327;  -12.620;  610.760
1025.523;   31.415;  -12.630;  620.960
1026.072;   31.600;  -14.110;  606.420
1026.622;   30.839;  -15.390;  675.740
1027.172;   32.306;   -9.090;  715.660
1027.721;   30.427;  -12.250;  601.220
1028.270;   31.528;  -15.590;  663.400
1028.820;   30.785;  -13.840;  638.080
1029.369;   30.109;  -13.170;  612.700
1029.918;   30.047;  -14.080;  649.840
1030.468;   29.235;  -13.860;  564.780
1031.017;   31.064;  -12.970;  634.800
1031.566;   28.648;  -12.320;  608.900
1032.115;   30.606;  -13.140;  694.500
1032.664;   29.019;  -14.560;  596.480
1033.213;   29.392;  -11.620;  735.420
1033.762;   29.042;  -13.190;  635.620
1034.311;   29.145;  -13.460;  677.220
1034.860;   29.257;  -15.770;  691.000
1035.408;   28.519;  -13.100;  722.720
1035.957;   28.779;  -12.880;  719.540
1036.506;   26.562;  -13.640;  530.800
1037.055;   30.002;  -12.420;  844.320
1037.603;   27.973;  -13.740;  664.000
1038.152;   26.466;  -13.840;  534.760
1038.700;   26.736;  -10.770;  585.740
1039.249;   26.699;  -13.520;  681.220
1039.797;   27.391;  -13.060;  633.360
1040.345;   26.869;  -11.760;  705.420
1040.894;   26.177;  -10.790;  625.300
1041.442;   25.518;  -15.420;  632.200
1041.990;   24.513;  -14.550;  559.160
1042.538;   24.714;  -15.620;  536.180
1043.087;   25.103;  -14.940;  570.860
1043.635;   26.271;  -12.100;  670.500
1044.183;   24.915;  -13.200;  586.400
1044.731;   25.227;  -11.630;  576.000
1045.279;   24.864;  -14.200;  674.920
1045.827;   27.102;  -12.510;  892.400
1046.374;   23.334;  -14.960;  515.420
1046.922;   22.503;  -11.850;  590.580
1047.470;   24.823;  -13.770;  691.300
1048.018;   24.654;  -15.380;  647.960
1048.565;   25.507;  -14.010;  708.600
1049.113;   23.567;  -14.620;  557.000
1049.660;   23.338;  -14.940;  629.660
1050.208;   23.786;  -14.540;  675.640
1050.755;   23.192;  -13.710;  606.580
1051.303;   23.318;  -11.880;  686.820
1051.850;   23.215;  -12.160;  635.120
1052.397;   20.871;  -15.110;  473.960
1052.945;   22.306;  -14.770;  617.760
1053.492;   23.419;  -12.320;  741.840
1054.039;   23.532;  -13.290;  720.180
1054.586;   22.181;  -15.210;  557.240
1055.133;   22.089;  -12.920;  693.140
1055.680;   22.478;  -12.610;  646.620
1056.227;   21.395;  -12.620;  542.780
1056.774;   23.552;  -13.010;  794.980
1057.321;   20.667;  -16.180;  523.260
1057.868;   21.693;  -11.230;  651.320
1058.415;   21.307;  -10.890;  651.980
1058.961;   21.141;  -12.530;  678.940
1059.508;   21.121;  -14.120;  643.820
1060.055;   20.460;  -13.340;  581.780
1060.601;   21.282;  -12.920;  624.300
1061.148;   19.954;  -14.430;  616.820
1061.694;   19.584;  -14.140;  592.580
1062.241;   20.403;  -12.550;  596.320
1062.787;   20.571;  -13.370;  663.140
1063.334;   22.366;  -12.260;  808.560
1063.880;   20.143;  -10.800;  668.360
1064.426;   20.269;   -9.920;  706.820
1064.972;   18.618;  -12.970;  601.340
1065.518;   18.250;  -14.440;  566.640
1066.065;   19.571;  -12.680;  624.460
1066.611;   18.377;  -13.520;  598.800
1067.157;   19.116;  -11.100;  641.860
1067.703;   18.950;  -14.100;  668.480
1068.249;   18.614;  -13.750;  605.220
1068.794;   18.861;  -11.070;  626.880
1069.340;   17.919;  -13.210;  578.960
1069.886;   19.212;  -14.850;  590.700
1070.432;   17.207;  -14.580;  541.720
1070.977;   16.650;  -12.930;  601.080
1071.523;   18.448;  -11.970;  573.060
1072.068;   17.583;  -13.730;  582.000
1072.614;   17.271;  -14.550;  527.760
1073.160;   17.325;  -13.690;  687.040
1073.705;   16.374;  -14.780;  572.520
1074.250;   16.483;  -15.430;  559.900
1074.796;   17.841;  -11.620;  655.160
1075.341;   17.954;  -11.580;  664.100
1075.886;   16.968;  -13.190;  594.240
1076.431;   17.450;  -13.630;  649.880
1076.976;   16.500;  -11.670;  639.220
1077.521;   16.107;  -11.600;  583.080
1078.067;   15.322;  -13.920;  579.400
1078.612;   16.075;  -12.910;  661.620
1079.156;   16.196;  -15.340;  601.540
1079.701;   16.191;  -12.560;  693.260
1080.246;   16.955;  -12.490;  696.300
1080.791;   15.335;  -14.550;  625.020
1081.336;   16.235;  -15.210;  659.320
1081.880;   15.994;  -11.280;  649.680
1082.425;   14.782;  -12.830;  573.480
1082.970;   17.445;  -11.680;  717.040
1083.514;   14.772;  -15.500;  597.000
1084.059;   14.452;  -11.770;  586.720
1084.603;   13.925;  -13.480;  565.840
1085.147;   14.525;  -13.940;  645.220
1085.692;   15.599;  -13.170;  716.800
1086.236;   13.202;  -15.740;  503.140
1086.780;   15.504;  -10.750;  751.440
1087.325;   13.904;  -14.900;  654.620
1087.869;   14.159;  -15.160;  610.700
1088.413;   14.897;  -11.030;  705.040
1088.957;   13.154;  -15.210;  543.400
1089.501;   15.259;  -12.310;  766.640
1090.045;   14.684;  -12.790;  726.480
1090.589;   12.517;  -14.040;  569.920
1091.133;   13.273;  -12.800;  673.340
1091.676;   13.789;  -13.600;  591.940
1092.220;   12.438;  -12.960;  600.920
1092.764;   13.809;  -10.830;  706.960
1093.307;   12.740;  -12.390;  673.780
1093.851;   12.253;  -15.850;  556.540
1094.395;   12.933;  -12.980;  683.140
1094.938;   12.816;  -13.670;  632.520
1095.482;   12.278;  -12.740;  559.800
1096.025;   13.336;  -13.340;  710.880
1096.568;   13.900;  -10.500;  779.280
1097.112;   10.391;  -13.500;  508.180
1097.655;   12.545;  -13.060;  603.000
1098.198;   10.837;  -13.240;  600.180
1098.741;   10.583;  -15.490;  612.860
1099.285;   11.733;  -13.410;  657.300
1099.828;    9.625;  -15.640;  439.400
1100.371;   11.143;  -13.980;  608.160
1100.914;   11.678;  -13.990;  682.660
1101.457;   11.456;  -15.030;  679.900
1101.999;    9.779;  -12.480;  584.680
1102.542;   11.471;  -12.410;  641.440
1103.085;   10.600;  -14.730;  658.500
1103.628;   11.757;  -12.190;  762.060
1104.170;   10.431;  -12.360;  588.280
1104.713;   11.126;  -13.350;  646.700
1105.256;    9.993;  -14.930;  557.440
1105.798;    8.549;  -15.150;  499.980
1106.341;   11.400;  -13.230;  728.900
1106.883;    9.264;  -14.680;  521.340
1107.425;    9.979;  -14.810;  668.180
1107.968;    9.269;  -12.940;  612.380
1108.510;   10.844;  -10.550;  684.960
1109.052;    8.429;  -15.640;  612.620
1109.594;    8.731;  -14.440;  554.440
1110.136;    9.535;  -11.380;  643.220
1110.679;    8.114;  -13.090;  633.080
1111.221;    9.068;  -14.230;  604.460
1111.763;    8.324;  -14.260;  559.220
1112.304;    7.756;  -14.510;  547.140
1112.846;    8.979;  -14.700;  666.240
1113.388;   12.317;  -12.270;  942.180
1113.930;    9.534;  -13.340;  694.200
1114.472;    7.887;  -12.560;  606.540
1115.013;    7.016;  -14.280;  551.280
1115.555;    7.494;  -14.010;  587.100
1116.097;    7.046;  -14.730;  579.480
1116.638;    7.770;  -12.160;  684.600
1117.180;    8.010;  -14.320;  667.740
1117.721;    7.466;  -15.730;  568.580
1118.262;    8.550;  -13.480;  677.960
1118.804;    7.941;  -11.530;  637.340
1119.345;    6.928;  -13.540;  578.400
1119.886;    8.545;  -14.470;  704.040
1120.427;    7.096;  -13.030;  589.020
1120.969;    6.090;  -13.150;  597.920
1121.510;    6.254;  -13.940;  563.060
1122.051;    7.347;  -12.310;  723.580
1122.592;    6.817;  -13.870;  655.420
1123.133;    4.965;  -12.890;  547.940
1123.673;    7.377;  -13.300;  706.480
1124.214;    6.556;  -14.000;  612.460
1124.755;    7.003;  -13.210;  639.460
1125.296;    6.385;  -13.450;  627.320
1125.836;    7.606;  -12.610;  691.500
1126.377;    5.776;  -15.840;  599.660
1126.918;    6.541;  -11.830;  614.980
1127.458;    5.476;  -11.830;  622.220
1127.999;    6.541;  -11.490;  656.980
1128.539;    6.468;  -12.900;  694.240
1129.079;    5.508;  -14.910;  632.720
1129.620;    4.322;  -12.920;  558.100
1130.160;    4.398;  -14.640;  539.480
1130.700;    6.017;  -13.270;  640.840
1131.240;    5.758;  -14.110;  643.700
1131.781;    4.319;  -13.130;  619.680
1132.321;    5.239;  -15.220;  599.120
1132.861;    3.974;  -15.670;  564.200
1133.401;    3.427;  -13.970;  593.940
1133.941;    4.361;  -13.740;  626.280
1134.481;    4.113;  -13.200;  597.580
1135.020;    4.265;  -14.830;  609.160
1135.560;    5.364;  -14.590;  674.940
1136.100;    3.053;  -13.730;  501.160
1136.640;    3.558;  -15.240;  510.480
1137.179;    3.238;  -14.710;  537.960
1137.719;    4.250;  -14.090;  605.400
1138.258;    4.277;  -12.470;  587.360
1138.798;    4.734;  -12.580;  663.780
1139.337;    2.792;  -16.480;  482.840
1139.877;    4.227;  -13.970;  642.360
1140.416;    6.057;   -9.870;  878.060
1140.955;    2.534;  -14.860;  535.380
1141.494;    4.119;  -14.530;  669.280
1142.034;    3.456;  -13.940;  583.520
1142.573;    3.901;  -11.160;  646.280
1143.112;    2.156;  -15.050;  553.480
1143.651;    2.831;  -15.390;  536.480
1144.190;    4.082;  -12.990;  691.640
1144.729;    3.462;  -12.220;  607.420
1145.267;    3.206;  -14.020;  584.900
1145.806;    3.966;  -12.740;  637.040
1146.345;    2.599;  -14.810;  635.020
1146.884;    2.628;  -12.920;  622.500
1147.422;    1.439;  -13.930;  533.060
1147.961;    4.292;  -11.830;  708.460
1148.500;    2.987;  -12.710;  669.720
1149.038;    3.284;  -14.420;  632.500
1149.577;    2.939;  -13.920;  698.640
1150.115;    1.133;  -17.050;  452.280
1150.653;    2.684;  -14.890;  607.340
1151.192;    2.920;  -15.270;  552.920
1151.730;    1.370;  -13.160;  652.560
1152.268;    2.639;  -15.430;  589.520
1152.806;    2.360;  -15.880;  571.180
1153.344;    0.460;  -13.240;  577.640
1153.882;    1.767;  -13.010;  600.060
1154.421;    0.023;  -16.180;  470.620
1154.958;    1.115;  -13.880;  595.240
1155.496;    2.553;  -13.590;  645.280
1156.034;    1.553;  -11.910;  721.880
1156.572;    2.130;  -12.010;  667.060
1157.110;    0.329;  -16.250;  473.940
1157.647;    2.334;  -15.230;  676.960
1158.185;    0.555;  -13.770;  564.320
1158.723;    0.082;  -15.300;  509.200
1159.260;    1.191;  -13.130;  701.700
1159.798;    1.751;  -11.300;  658.160
1160.335;    0.925;  -13.210;  631.820

