
Integration time [ms]:   3.276
Averaging Nr. [scans]: 1000
Smoothing Nr. [pixels]: 0
Data measured with spectrometer [name]: 7414430SP
Wave   ;Sample   ;Dark     ;Reference
[nm]   ;[counts] ;[counts] ;[counts] 

288.544;  149.948;    7.793;  793.890
289.143;  154.758;    7.462;  681.602
289.742;  155.024;    8.602;  828.814
290.341;  140.108;    1.321;  789.841
290.940;  128.468;   -0.709;  730.702
291.538;  129.550;    0.881;  881.108
292.137;  131.821;    0.122;  792.581
292.736;  135.065;   -1.929;  975.101
293.335;  131.281;   -8.229;  735.086
293.934;  131.052;   -5.279;  781.677
294.532;  130.635;   -1.369; 1031.958
295.131;  116.245;   -7.641;  834.394
295.730;  116.942;   -8.420;  809.588
296.328;  114.717;   -5.611;  783.442
296.927;  117.276;   -5.781;  779.652
297.525;  117.218;   -6.361;  781.236
298.124;  107.376;  -11.382;  654.009
298.722;  110.765;   -7.641;  761.933
299.321;  110.424;   -6.811;  708.597
299.919;  108.938;   -6.991;  751.918
300.518;  103.802;  -10.362;  689.338
301.116;  106.084;   -9.581;  691.381
301.715;  106.580;   -4.891;  730.222
302.313;  105.295;   -8.801;  704.943
302.911;  100.411;   -8.522;  733.830
303.509;  105.592;   -6.171;  925.627
304.108;  103.198;   -7.311;  760.383
304.706;  102.519;   -8.321;  801.664
305.304;   95.956;  -10.222;  796.707
305.902;  101.665;   -6.021;  784.484
306.500;   98.721;   -4.971;  728.200
307.098;   97.137;   -7.061;  746.560
307.696;   94.795;   -8.801;  780.432
308.294;   95.359;   -6.411;  731.359
308.892;   97.869;   -2.901;  759.769
309.490;   93.621;   -5.041;  712.161
310.088;   91.658;   -5.002;  788.444
310.686;   95.423;   -2.041;  821.749
311.284;   92.950;   -2.351;  766.040
311.882;   89.157;   -4.422;  731.225
312.480;   84.990;   -4.192;  697.167
313.078;   87.454;   -1.172;  808.331
313.675;   88.950;   -2.601;  691.600
314.273;   84.243;   -1.312;  797.837
314.871;   82.828;   -3.942;  589.829
315.468;   80.462;   -2.802;  652.090
316.066;   84.193;   -0.701;  694.427
316.664;   76.504;   -4.362;  656.351
317.261;   79.525;   -2.872;  910.128
317.859;   75.463;   -2.022;  768.735
318.456;   76.798;   -0.531;  830.096
319.054;   72.669;   -3.912;  787.828
319.651;   71.235;   -4.752;  759.928
320.249;   70.138;   -2.602;  810.188
320.846;   68.590;   -0.821;  714.286
321.443;   66.252;   -4.642;  832.135
322.041;   62.402;   -5.002;  812.315
322.638;   60.382;   -3.982;  701.456
323.235;   62.811;   -3.411;  665.683
323.833;   60.094;   -7.361;  740.354
324.430;   54.411;   -8.611;  615.900
325.027;   55.320;   -4.061;  876.855
325.624;   55.502;   -4.031;  644.532
326.221;   52.631;   -7.481;  689.717
326.818;   51.492;   -5.281;  818.332
327.415;   55.167;   -7.460;  748.828
328.012;   55.175;   -5.510;  690.585
328.609;   53.445;   -7.880;  731.389
329.206;   51.541;   -8.331;  778.621
329.803;   50.826;   -5.121;  737.841
330.400;   54.753;   -4.510;  704.260
330.997;   56.058;   -6.441;  817.147
331.594;   53.298;   -8.831;  788.185
332.191;   59.150;   -7.621;  728.722
332.787;   63.196;   -4.591;  844.463
333.384;   61.846;   -7.412;  763.093
333.981;   59.585;   -8.293;  815.687
334.578;   62.170;   -7.052;  708.378
335.174;   65.614;   -3.102;  731.469
335.771;   64.592;   -5.943;  836.456
336.367;   61.627;   -7.393;  710.631
336.964;   65.238;   -4.063;  793.266
337.561;   63.666;   -3.813;  731.112
338.157;   60.084;   -4.654;  911.916
338.754;   55.805;   -7.934;  796.589
339.350;   54.888;   -4.414;  722.493
339.946;   57.513;   -4.664;  773.135
340.543;   49.605;   -6.375;  846.136
341.139;   42.877;   -9.815;  720.836
341.735;   40.691;   -4.526;  772.593
342.332;   40.502;   -4.895;  691.472
342.928;   40.087;   -4.295;  795.394
343.524;   34.171;   -5.476;  761.684
344.120;   31.243;   -5.856;  738.562
344.716;   34.622;   -2.155;  723.717
345.313;   31.939;   -6.275;  795.342
345.909;   26.475;   -8.815;  627.336
346.505;   28.253;   -5.305;  740.247
347.101;   29.644;   -2.674;  827.864
347.697;   29.677;   -4.344;  785.398
348.293;   24.128;   -9.975;  627.244
348.889;   24.301;   -5.774;  745.914
349.485;   24.604;   -5.004;  688.205
350.081;   24.489;   -4.704;  772.592
350.676;   19.979;   -6.635;  691.606
351.272;   24.137;   -4.504;  809.530
351.868;   24.488;   -3.914;  780.497
352.464;   21.296;   -9.044;  723.932
353.059;   17.704;   -8.314;  646.017
353.655;   20.296;   -7.024;  777.063
354.251;   22.176;   -5.343;  759.845
354.846;   16.611;   -8.604;  740.646
355.442;   13.724;   -6.945;  753.071
356.038;   16.181;   -7.564;  751.708
356.633;   17.343;   -5.814;  728.594
357.229;   14.209;   -7.364;  724.757
357.824;   12.210;   -8.024;  703.600
358.420;   11.839;   -9.384;  679.726
359.015;   13.485;   -5.104;  695.357
359.610;   13.085;   -6.854;  763.920
360.206;    7.089;  -10.185;  603.240
360.801;    9.838;   -7.054;  646.503
361.396;   13.430;   -5.034;  725.975
361.992;    7.691;   -8.284;  668.220
362.587;    5.320;   -8.625;  670.160
363.182;    6.470;   -7.674;  689.631
363.777;    8.205;   -5.164;  738.242
364.372;    7.855;   -8.604;  737.314
364.967;    3.504;   -9.055;  680.744
365.563;    8.166;   -6.114;  815.567
366.158;    5.488;   -5.814;  685.161
366.753;    5.839;   -7.854;  649.263
367.348;    3.586;   -7.804;  746.056
367.942;    3.362;   -7.954;  697.298
368.537;    3.313;   -4.984;  754.245
369.132;    2.783;   -8.564;  703.428
369.727;   -0.655;   -8.855;  638.079
370.322;    0.127;   -6.245;  580.186
370.917;    0.921;   -6.425;  710.646
371.511;    2.669;   -6.294;  861.834
372.106;   -1.206;   -7.685;  776.964
372.701;   -3.777;   -7.335;  585.988
373.296;    3.209;   -4.564;  863.135
373.890;   -2.433;  -10.235;  647.840
374.485;   -5.355;   -7.885;  691.199
375.079;   -1.266;   -7.324;  738.685
375.674;    1.013;   -3.494;  812.970
376.268;   -3.468;   -8.525;  691.759
376.863;   -9.129;  -10.086;  580.327
377.457;   -3.186;   -7.025;  662.490
378.052;   -4.230;   -3.585;  764.884
378.646;   -6.137;   -7.595;  741.167
379.240;   -7.206;   -8.335;  721.176
379.835;   -5.783;   -5.785;  636.978
380.429;   -6.176;   -4.335;  562.557
381.023;   -7.361;   -6.805;  779.205
381.617;  -10.162;   -9.195;  680.106
382.212;   -6.977;   -6.905;  685.303
382.806;   -4.896;   -3.745;  760.690
383.400;   -9.225;   -7.745;  672.281
383.994;  -10.774;   -9.765;  664.870
384.588;   -6.897;   -6.564;  697.701
385.182;   -4.678;   -5.344;  726.624
385.776;   -6.405;   -8.514;  706.875
386.370;  -10.277;   -9.555;  681.968
386.964;   -9.252;   -8.715;  684.155
387.558;   -6.717;   -6.174;  598.360
388.152;  -10.266;   -8.725;  681.959
388.745;   -9.777;   -7.965;  814.707
389.339;   -7.110;   -5.924;  747.642
389.933;   -5.914;   -5.524;  695.370
390.527;   -6.923;   -7.114;  859.029
391.120;  -13.299;  -10.725;  595.318
391.714;  -10.690;   -8.035;  711.633
392.308;   -7.219;   -3.574;  780.253
392.901;  -10.988;   -7.245;  642.460
393.495;  -13.378;   -9.285;  595.414
394.089;  -10.538;   -5.895;  760.452
394.682;   -9.849;   -4.295;  697.188
395.275;  -11.765;   -9.875;  719.927
395.869;  -13.735;   -8.485;  667.314
396.462;  -11.661;   -7.455;  616.609
397.056;   -6.762;   -5.424;  776.621
397.649;  -11.947;   -6.605;  731.575
398.242;  -10.265;   -8.224;  712.645
398.836;   -8.978;   -7.474;  766.408
399.429;   -9.423;   -7.094;  631.041
400.022;  -13.971;   -9.475;  665.902
400.615;  -11.775;   -7.145;  805.609
401.208;   -8.821;   -7.174;  691.451
401.802;  -10.948;   -5.515;  699.329
402.395;  -12.322;   -9.875;  683.502
402.988;  -14.131;   -8.845;  696.627
403.581;  -10.102;   -8.874;  646.878
404.174;   -8.196;   -5.324;  686.568
404.767;  -10.835;   -9.575;  638.583
405.360;  -13.667;  -10.965;  621.445
405.953;   -7.716;   -8.764;  759.034
406.545;   -6.525;   -7.514;  725.342
407.138;  -11.449;  -10.025;  618.350
407.731;  -10.655;  -10.034;  613.303
408.324;   -6.454;   -9.374;  660.554
408.917;   -6.223;   -6.534;  681.864
409.509;   -8.067;   -8.004;  740.396
410.102;  -11.243;   -9.875;  643.948
410.695;   -5.289;   -8.604;  665.758
411.287;   -5.464;   -6.794;  599.821
411.880;   -7.197;   -9.334;  585.421
412.472;  -10.998;  -10.254;  613.092
413.065;   -7.812;   -6.714;  629.408
413.657;   -4.099;   -7.234;  576.678
414.250;   -4.542;  -10.544;  646.681
414.842;   -7.301;   -9.744;  676.353
415.434;   -5.613;   -6.994;  570.463
416.027;   -0.228;   -5.893;  652.196
416.619;   -2.337;   -7.264;  713.400
417.211;   -2.893;  -10.374;  599.352
417.804;    0.598;   -7.993;  628.499
418.396;   -3.412;   -7.234;  607.643
418.988;   -1.018;   -9.443;  659.238
419.580;   -4.911;  -10.724;  568.276
420.172;   -2.619;  -10.323;  536.196
420.764;    2.517;   -8.793;  672.482
421.356;    0.764;  -11.143;  636.898
421.948;    0.021;   -8.293;  677.661
422.540;    4.736;   -7.893;  680.027
423.132;    5.468;   -7.082;  600.641
423.724;    1.528;   -8.653;  561.267
424.316;    2.096;  -10.213;  621.345
424.908;    6.494;   -9.762;  591.517
425.500;    7.920;   -5.572;  647.978
426.092;    7.970;   -8.422;  648.268
426.683;    6.437;   -9.283;  684.836
427.275;    8.641;   -7.852;  641.471
427.867;   12.392;   -5.272;  668.948
428.458;   11.586;   -7.682;  732.344
429.050;    9.112;  -10.612;  680.749
429.642;   11.702;   -9.882;  743.124
430.233;   13.699;   -6.962;  569.356
430.825;   14.464;   -6.842;  724.809
431.416;   10.865;   -9.672;  698.241
432.008;   14.389;   -6.552;  651.723
432.599;   16.044;   -6.891;  656.073
433.190;   13.637;  -10.912;  637.670
433.782;   11.836;  -11.172;  590.395
434.373;   19.418;   -6.061;  884.765
434.964;   18.669;   -8.251;  602.920
435.556;   16.003;   -9.722;  634.537
436.147;   17.844;   -9.082;  758.490
436.738;   18.951;   -8.041;  701.099
437.329;   24.644;   -7.341;  721.723
437.920;   17.866;   -8.162;  666.688
438.511;   16.621;  -11.802;  564.526
439.103;   23.197;  -10.191;  623.998
439.694;   25.675;   -7.601;  681.583
440.285;   26.418;   -8.541;  764.432
440.876;   23.526;   -9.751;  845.738
441.466;   23.515;   -9.401;  575.162
442.057;   29.654;   -7.760;  665.814
442.648;   28.318;   -9.971;  746.255
443.239;   25.490;  -11.001;  620.477
443.830;   31.837;   -7.990;  704.958
444.421;   33.469;   -7.910;  655.474
445.011;   29.839;   -8.131;  693.619
445.602;   29.334;   -7.111;  743.126
446.193;   32.371;  -10.920;  488.117
446.783;   36.515;   -6.500;  640.397
447.374;   31.833;   -8.671;  692.759
447.964;   31.672;  -10.781;  713.770
448.555;   40.271;   -9.650;  822.742
449.145;   37.414;   -8.660;  662.853
449.736;   37.371;   -8.990;  803.179
450.326;   37.489;   -9.500;  713.626
450.917;   42.075;   -8.680;  675.324
451.507;   41.926;   -7.520;  600.661
452.097;   42.716;   -8.590;  746.267
452.688;   43.057;  -11.340;  742.160
453.278;   43.359;  -10.100;  566.840
453.868;   48.502;   -6.019;  793.550
454.458;   46.064;   -9.440;  651.141
455.048;   45.156;  -10.560;  711.783
455.639;   47.655;  -11.799;  567.096
456.229;   51.432;   -6.899;  710.694
456.819;   53.817;   -7.389;  751.158
457.409;   53.006;  -11.119;  773.993
457.999;   55.852;   -9.289;  737.505
458.589;   56.735;   -6.139;  686.606
459.179;   56.528;   -8.729;  717.658
459.769;   53.322;   -9.789;  627.099
460.358;   59.022;  -10.259;  797.262
460.948;   59.278;   -7.299;  689.503
461.538;   60.499;  -10.289;  660.677
462.128;   58.878;  -11.269;  664.934
462.717;   65.451;   -9.368;  710.326
463.307;   69.442;   -7.908;  705.846
463.897;   64.149;   -9.599;  656.942
464.486;   63.473;   -9.769;  837.128
465.076;   67.809;   -8.048;  733.776
465.666;   72.178;   -9.358;  652.900
466.255;   69.467;   -7.919;  785.651
466.845;   68.026;  -11.689;  666.749
467.434;   71.837;   -7.818;  725.873
468.023;   73.229;   -7.678;  658.357
468.613;   71.279;  -10.939;  713.946
469.202;   73.845;  -10.118;  646.507
469.791;   78.270;   -9.108;  737.811
470.381;   82.423;   -6.058;  742.813
470.970;   81.086;  -10.428;  711.099
471.559;   80.301;  -10.268;  733.291
472.148;   83.991;   -8.448;  675.737
472.738;   87.479;   -6.917;  765.466
473.327;   86.193;  -11.978;  637.529
473.916;   85.329;  -11.888;  737.446
474.505;   89.804;   -9.437;  751.703
475.094;   94.069;   -6.747;  806.570
475.683;   93.349;   -9.367;  797.699
476.272;   92.616;  -12.637;  730.632
476.861;   97.142;  -10.027;  706.754
477.449;  103.236;   -8.716;  728.487
478.038;   97.486;   -9.577;  692.513
478.627;   98.889;   -9.718;  714.852
479.216;  104.809;   -8.947;  769.441
479.805;  108.490;   -6.256;  783.375
480.393;  108.235;   -7.937; 1008.945
480.982;  107.497;   -7.717;  874.501
481.571;  113.212;   -9.266;  858.333
482.159;  114.711;   -7.636;  705.386
482.748;  113.750;   -9.667;  821.385
483.336;  118.518;  -10.376;  858.209
483.925;  119.375;   -7.147;  774.373
484.513;  128.615;   -7.996;  758.962
485.102;  124.208;  -10.027;  810.965
485.690;  131.936;  -10.446; 1011.050
486.278;  134.423;   -8.446;  979.329
486.867;  135.355;   -6.356;  809.662
487.455;  138.010;   -9.136;  898.229
488.043;  138.493;  -10.646;  748.361
488.631;  147.626;   -7.456; 1005.079
489.220;  153.011;   -6.636;  908.626
489.808;  152.606;  -11.036;  741.415
490.396;  160.155;  -10.246;  914.645
490.984;  166.351;   -8.556;  830.161
491.572;  179.253;   -5.886;  940.315
492.160;  185.707;   -9.486;  919.081
492.748;  197.312;  -10.976;  884.341
493.336;  222.175;   -8.776; 1019.693
493.924;  252.351;   -5.465;  958.077
494.512;  283.855;   -9.986; 1066.638
495.100;  326.388;  -10.636; 1103.280
495.687;  383.881;  -10.885; 1206.373
496.275;  452.338;   -8.126; 1150.796
496.863;  522.497;  -10.586; 1281.171
497.451;  632.613;  -11.926; 1386.805
498.038;  795.397;  -10.885; 1556.729
498.626;  926.106;   -6.315; 1741.407
499.214; 1076.155;   -7.326; 2016.609
499.801; 1305.809;  -11.906; 2220.633
500.389; 1596.565;  -10.466; 2312.494
500.976; 1993.335;   -5.236; 2744.849
501.564; 2435.431;   -8.936; 3148.565
502.151; 2850.735;  -13.176; 3515.999
502.738; 3383.342;  -10.646; 3971.274
503.326; 3796.042;   -9.525; 4403.796
503.913; 4271.908;  -10.856; 5161.749
504.500; 4651.646;  -11.586; 5986.420
505.088; 5086.998;  -10.336; 6381.201
505.675; 5668.266;   -6.355; 6925.547
506.262; 6317.774;   -9.046; 7619.060
506.849; 7143.330;  -10.416; 8733.969
507.436; 7709.523;  -10.305; 9790.121
508.023; 8163.962;   -5.496; 9985.472
508.610; 8470.623;   -7.856;10434.618
509.197; 9264.141;  -10.097;11198.435
509.784;10964.706;  -10.886;12391.194
510.371;12231.425;   -9.315;13603.713
510.958;12995.565;   -9.936;14426.586
511.545;13648.794;   -9.326;15243.775
512.132;14222.252;  -10.075;15945.876
512.719;14869.485;   -7.796;16340.369
513.305;16295.866;  -10.606;18011.766
513.892;17260.367;  -11.486;19754.971
514.479;18847.408;   -9.126;20967.805
515.066;20091.318;   -6.026;22299.793
515.652;21157.504;   -8.466;22908.660
516.239;22639.379;  -10.886;23798.875
516.825;23116.064;  -11.496;25567.275
517.412;24156.439;   -5.796;28154.959
517.998;25264.555;  -10.506;28344.111
518.585;25269.646;  -10.076;27134.219
519.171;25211.039;   -8.315;27268.576
519.758;26883.998;   -8.596;28964.129
520.344;28382.211;   -8.466;30664.494
520.930;28292.738;  -11.006;32550.605
521.516;30474.900;  -10.495;35422.895
522.103;33281.047;   -5.526;38280.004
522.689;34020.297;   -8.746;37835.117
523.275;32726.963;  -11.376;37288.613
523.861;32940.906;  -11.156;37281.395
524.447;34928.973;   -8.135;37846.949
525.033;35046.109;   -7.896;38321.949
525.619;35334.574;  -12.476;38579.285
526.205;36847.801;   -9.516;40622.875
526.791;39315.094;   -6.926;42258.836
527.377;39442.664;   -8.346;42966.902
527.963;41497.723;   -8.717;42018.949
528.549;40797.289;  -11.016;42476.828
529.135;38625.934;   -8.536;41854.852
529.721;38041.027;   -9.666;41237.711
530.306;37628.488;  -10.066;41259.445
530.892;37854.719;  -11.356;41506.047
531.478;38866.887;   -6.596;43559.613
532.063;41147.422;   -8.836;47695.563
532.649;41389.957;  -10.047;50808.324
533.235;43380.070;   -9.746;51787.500
533.820;44837.516;   -6.566;52145.035
534.406;44683.285;  -10.817;51133.488
534.991;43787.441;   -9.416;49996.805
535.576;42549.238;   -9.036;48882.852
536.162;43188.180;   -6.156;46942.285
536.747;44416.797;  -11.607;45711.746
537.333;47905.531;  -11.787;48510.180
537.918;50336.125;  -12.437;50439.891
538.503;49079.480;   -7.196;50863.711
539.088;46492.406;  -10.556;50906.922
539.673;47778.508;   -8.767;52621.965
540.259;47681.863;  -10.026;52368.094
540.844;44129.633;   -7.416;50879.109
541.429;44438.578;   -9.467;52077.777
542.014;47979.297;   -9.527;52716.695
542.599;48448.629;   -9.946;52363.281
543.184;44906.465;   -7.927;53187.137
543.769;45935.059;   -9.297;54697.605
544.354;46238.563;  -10.127;53913.914
544.938;45595.895;   -9.267;49680.164
545.523;48039.773;   -6.506;47386.277
546.108;49662.895;   -9.787;49151.949
546.693;51599.609;  -11.587;51384.637
547.278;51676.637;  -10.986;51853.254
547.862;48354.168;   -8.206;51173.750
548.447;43978.629;  -10.067;51691.395
549.031;43115.914;   -9.637;52456.703
549.616;47836.988;   -9.926;52714.516
550.201;47539.367;   -6.347;52414.598
550.785;47442.598;   -7.917;52355.059
551.370;47305.859;  -10.867;54589.453
551.954;48067.438;   -9.047;58267.348
552.538;49744.660;   -7.827;59062.176
553.123;48424.102;  -10.287;58115.285
553.707;46005.941;  -12.178;56556.285
554.291;45923.566;   -8.717;56201.668
554.876;46064.363;   -7.457;55335.762
555.460;47085.418;  -10.387;54155.703
556.044;49590.699;   -9.618;53721.484
556.628;47717.898;  -11.567;53731.016
557.212;47188.480;   -8.097;54312.531
557.796;45649.797;  -11.077;53797.773
558.380;45919.629;  -11.108;56145.984
558.964;45838.043;   -9.057;57277.930
559.548;46048.336;   -6.977;56459.641
560.132;44494.723;  -11.457;54434.543
560.716;43619.211;  -11.378;54800.617
561.300;43701.082;   -9.577;57606.945
561.884;45117.484;   -7.127;58972.445
562.467;44900.004;   -7.118;57327.570
563.051;43925.609;  -13.358;54962.434
563.635;44324.070;  -10.178;52594.473
564.219;45726.035;   -7.837;50610.410
564.802;46625.711;  -11.398;49551.180
565.386;46769.391;  -12.788;48370.953
565.969;46221.754;   -9.077;48178.871
566.553;45757.332;   -6.207;49957.305
567.136;45754.926;   -8.568;50369.594
567.720;41773.148;  -11.868;49492.004
568.303;39950.680;   -8.268;50616.352
568.887;40182.121;   -8.698;50727.148
569.470;40760.914;   -6.808;51698.379
570.053;39359.121;  -13.188;52122.078
570.637;37856.578;  -12.037;52536.438
571.220;37226.652;   -8.577;51186.098
571.803;37523.555;   -8.498;51032.762
572.386;39910.238;  -10.498;49609.887
572.969;43003.305;   -9.388;48285.926
573.552;41785.156;   -8.338;47624.285
574.135;41033.422;   -8.518;45498.641
574.718;37569.965;  -13.628;41970.434
575.301;36177.305;  -10.893;41447.137
575.884;34784.641;   -8.158;40923.836
576.467;35402.645;  -10.328;45267.723
577.050;38831.820;  -13.058;48175.543
577.633;40707.988;   -9.458;47729.328
578.216;39444.207;   -8.928;47579.793
578.799;38431.000;   -9.358;47820.996
579.381;36643.742;  -11.388;48115.551
579.964;35100.492;  -11.718;47333.766
580.547;36007.258;   -8.588;46668.969
581.129;36146.367;   -8.859;44466.141
581.712;36150.789;  -10.729;44164.922
582.294;37003.547;  -11.118;46477.855
582.877;38294.746;   -5.218;48244.254
583.459;36877.375;   -8.679;47437.895
584.042;34998.734;  -10.709;46943.219
584.624;35217.043;  -11.669;46792.227
585.206;33909.820;   -8.218;46557.250
585.789;34839.469;  -10.569;45793.773
586.371;38114.895;  -11.859;43836.391
586.953;37763.930;  -10.719;42972.492
587.536;38197.418;   -7.198;42487.211
588.118;38439.102;   -8.720;42086.414
588.700;35771.473;  -10.439;43389.930
589.282;34747.574;   -9.198;43646.039
589.864;35065.414;   -9.199;43438.109
590.446;36558.703;  -11.319;43151.926
591.028;36095.805;  -11.159;42781.867
591.610;35200.723;  -11.779;42839.098
592.192;32395.744;   -7.668;42820.402
592.774;30847.906;  -11.949;40724.277
593.356;29857.580;  -12.129;39874.789
593.937;29635.471;  -10.669;39980.648
594.519;31990.066;   -6.509;42069.633
595.101;33775.277;  -10.849;42976.031
595.683;33728.477;  -11.679;44084.441
596.264;34895.723;   -9.049;43478.797
596.846;33456.863;   -8.849;43803.672
597.427;32453.957;   -9.570;42986.934
598.009;34248.082;  -12.620;42832.219
598.591;34820.207;  -10.039;42580.086
599.172;34500.980;  -10.369;43061.805
599.753;34655.355;   -9.140;41691.469
600.335;35854.262;  -11.430;40692.520
600.916;34147.340;   -9.939;39982.422
601.498;32425.990;   -8.479;40318.617
602.079;31228.158;  -10.920;40670.609
602.660;31004.602;  -11.480;41450.898
603.241;31261.803;  -11.699;41137.738
603.823;29605.783;   -9.579;38868.797
604.404;30318.904;  -10.620;38182.785
604.985;31742.494;  -10.450;38078.047
605.566;30890.820;   -9.129;38056.633
606.147;30423.395;   -7.510;37020.418
606.728;33045.867;  -10.660;37883.359
607.309;32370.482;  -11.740;38748.273
607.890;31403.395;   -9.759;38850.230
608.471;30962.771;   -8.250;37457.918
609.051;30421.564;   -9.240;36066.457
609.632;29202.135;  -12.120;35991.074
610.213;29980.967;   -9.110;37402.641
610.794;30376.150;   -8.030;38383.363
611.374;29274.855;   -8.110;40562.387
611.955;29134.254;  -13.560;38533.727
612.536;30600.033;  -11.400;36951.789
613.116;31093.299;   -8.070;37197.891
613.697;31823.471;  -10.830;38411.125
614.277;30294.436;  -11.641;38673.938
614.858;31111.646;  -13.310;37075.863
615.438;31458.133;   -7.460;35092.906
616.019;28786.453;   -7.601;33666.301
616.599;29102.152;  -12.020;34189.023
617.179;30701.721;  -11.780;36952.047
617.760;30831.402;   -8.570;39582.574
618.340;32164.738;  -11.471;38943.977
618.920;33685.594;  -11.170;37594.156
619.500;33395.758;  -11.071;37866.938
620.080;33220.098;   -7.750;37869.043
620.660;34243.570;  -12.711;36868.617
621.241;34930.902;  -10.211;36352.309
621.821;34271.820;  -10.961;35459.520
622.401;33875.805;   -7.720;35207.414
622.980;32836.883;   -8.981;35980.422
623.560;31384.260;   -9.331;37351.328
624.140;31177.523;   -9.850;34388.582
624.720;26863.188;   -7.451;32368.764
625.300;22680.195;   -9.070;32638.629
625.880;25482.891;  -12.601;34599.035
626.459;29014.059;  -11.751;36831.738
627.039;31642.029;   -9.281;38299.098
627.619;31711.951;   -8.801;38289.574
628.198;30260.135;  -12.071;37220.695
628.778;30283.969;   -9.461;37632.563
629.357;31112.111;   -8.491;38003.012
629.937;30670.689;   -9.721;38402.039
630.516;29941.391;   -9.951;37868.801
631.096;29936.363;  -11.731;35760.410
631.675;33355.793;   -8.572;35225.219
632.254;38379.613;  -11.282;35130.289
632.834;37637.719;  -13.322;35794.570
633.413;36075.020;  -10.301;35788.922
633.992;32933.168;   -8.582;34532.863
634.571;33990.465;   -8.352;33590.113
635.151;36209.676;  -11.912;34943.863
635.730;34272.359;  -10.511;35352.523
636.309;31297.963;   -7.731;35366.605
636.888;28665.678;   -9.952;36165.637
637.467;28835.451;  -11.672;37515.902
638.046;30994.605;   -8.901;39288.695
638.625;34147.402;   -7.912;38279.699
639.204;33924.055;  -10.022;37741.598
639.782;32487.479;  -12.252;38364.551
640.361;28911.621;  -10.041;36740.621
640.940;26191.939;  -11.161;34950.082
641.519;25795.629;   -9.701;34137.398
642.097;28190.990;  -11.271;35654.258
642.676;31736.080;   -8.651;35637.957
643.255;33287.227;   -8.711;36567.074
643.833;31963.416;   -9.581;37809.434
644.412;32287.313;  -13.711;37337.293
644.990;31890.297;  -11.811;37018.531
645.569;31887.141;   -9.411;36518.469
646.147;30330.424;  -10.291;36186.430
646.726;29292.746;  -12.401;36267.688
647.304;30487.297;  -10.411;36647.625
647.882;31882.670;   -9.651;39286.742
648.461;33464.984;   -9.631;39157.703
649.039;33185.641;  -11.881;35412.883
649.617;33074.930;   -9.661;34744.918
650.195;32877.445;   -9.301;35403.098
650.773;31913.916;  -10.511;35053.797
651.352;29688.266;  -11.521;33756.816
651.930;26766.443;  -12.211;31868.773
652.508;23859.922;   -9.171;33121.551
653.086;27418.275;   -9.371;33564.793
653.663;30851.105;  -13.161;34054.668
654.241;29879.684;  -13.031;35693.309
654.819;31356.381;   -9.371;36422.906
655.397;30625.938;  -10.511;38213.484
655.975;30314.668;  -10.371;39507.625
656.553;30338.844;  -10.051;39498.223
657.130;29275.736;  -10.061;40395.480
657.708;29607.320;   -9.561;39242.020
658.286;29575.266;  -11.511;38920.020
658.863;29892.137;  -10.261;40202.898
659.441;31747.875;   -7.531;39677.938
660.018;30849.971;   -9.501;40413.355
660.596;30228.311;  -13.301;39931.414
661.173;32188.582;  -11.211;39604.531
661.750;32388.352;   -9.951;39700.070
662.328;31592.586;   -9.390;39292.809
662.905;30773.973;  -11.330;38235.648
663.482;26176.217;   -9.050;36212.305
664.060;23918.557;   -8.240;35944.945
664.637;26308.689;  -10.050;35170.785
665.214;27939.566;  -11.760;34197.523
665.791;29674.486;  -10.530;34549.520
666.368;29117.244;   -9.690;35118.578
666.945;30088.902;   -9.320;36019.418
667.522;31059.426;  -11.860;36048.438
668.099;31189.547;  -10.770;36243.914
668.676;30812.023;   -6.260;35958.875
669.253;29245.543;   -7.000;37384.730
669.830;29099.211;  -10.190;36779.629
670.407;28667.627;   -9.550;35231.289
670.984;29888.424;   -9.260;35544.270
671.560;29917.525;   -9.280;35466.867
672.137;28354.748;  -11.810;34280.863
672.714;29424.799;  -11.490;34632.863
673.290;29529.840;   -7.740;35135.422
673.867;29463.148;  -10.660;36114.480
674.443;29615.420;  -12.230;36152.859
675.020;27800.461;  -10.450;35327.238
675.596;29405.338;   -9.260;35795.176
676.173;30293.803;  -10.780;35430.355
676.749;29476.398;  -13.690;33549.516
677.326;29305.523;  -11.980;32210.012
677.902;29432.848;   -8.630;32068.871
678.478;28676.670;  -10.730;32583.891
679.054;28940.488;  -10.520;32088.928
679.631;30352.836;  -11.920;30978.848
680.207;31068.748;   -7.490;33160.887
680.783;32202.150;   -9.860;35570.363
681.359;30940.395;  -13.380;36125.184
681.935;29485.107;  -12.480;35240.922
682.511;28032.439;   -7.900;34429.961
683.087;28049.805;   -7.710;34463.680
683.663;28598.689;  -11.480;34648.898
684.239;28485.914;  -14.090;34546.457
684.815;28592.514;   -7.560;35586.375
685.390;28671.104;   -9.910;35821.895
685.966;28785.020;  -11.159;35085.871
686.542;31460.494;  -11.169;34198.230
687.118;33594.102;   -5.959;32847.707
687.693;33226.094;  -10.329;32794.027
688.269;32467.367;  -12.059;33072.367
688.844;30072.322;  -10.909;33141.664
689.420;28522.646;   -8.019;33965.742
689.995;26801.438;   -8.399;34655.523
690.571;25986.109;  -10.949;33576.742
691.146;26526.402;   -9.619;32657.219
691.722;25494.209;   -8.999;32526.979
692.297;25047.104;  -11.589;33014.617
692.872;27074.215;  -11.739;34012.254
693.448;27138.244;  -11.059;34237.434
694.023;25824.727;  -10.139;34142.672
694.598;27627.029;   -9.029;34132.031
695.173;27547.941;  -13.319;34205.250
695.748;27109.941;  -10.169;32882.488
696.323;26684.596;   -8.339;32864.906
696.898;26462.984;   -8.169;33170.004
697.473;26409.359;  -12.309;32432.984
698.048;26447.840;  -10.989;31649.303
698.623;27040.146;   -9.329;30778.141
699.198;28676.049;   -9.849;31140.119
699.773;29396.125;  -12.329;31764.299
700.348;28597.432;  -10.389;31780.816
700.922;28919.619;   -9.269;32046.375
701.497;29020.734;   -9.329;32603.574
702.072;28749.314;  -10.789;34799.871
702.646;28255.275;  -10.839;35793.172
703.221;27488.758;   -9.099;35201.590
703.795;29540.176;  -10.939;34764.527
704.370;29169.570;  -12.859;34307.367
704.944;29029.645;  -11.559;33509.887
705.519;30262.482;   -7.939;31388.584
706.093;31563.289;  -10.499;31340.104
706.668;31126.740;  -11.289;32630.281
707.242;29573.230;  -11.509;32728.779
707.816;28386.781;   -9.639;32947.238
708.390;27000.244;  -11.429;33277.855
708.965;27862.789;  -11.869;33834.336
709.539;28747.268;  -11.689;33709.273
710.113;29141.416;  -10.478;33044.313
710.687;28068.748;  -10.228;31953.992
711.261;25667.131;  -13.698;30505.949
711.835;25583.939;  -13.378;30262.369
712.409;26735.682;   -9.698;31254.447
712.983;27807.826;  -11.898;32754.986
713.557;28797.299;  -15.138;34018.824
714.131;28653.486;  -14.098;34579.625
714.704;27665.014;   -9.958;33890.262
715.278;25392.258;  -10.028;33531.102
715.852;25464.375;  -11.148;33601.660
716.425;26732.945;   -9.068;33515.117
716.999;27315.211;  -10.038;33185.555
717.573;28144.666;   -9.798;33905.996
718.146;29138.215;  -12.378;35199.293
718.720;28892.492;  -11.918;35060.551
719.293;28710.775;   -8.088;34973.230
719.867;31116.889;  -10.888;36394.449
720.440;31126.475;  -11.938;36663.008
721.013;30038.400;  -12.818;35102.426
721.587;28722.393;  -10.298;33985.266
722.160;26537.295;  -10.048;33524.965
722.733;25451.289;  -12.108;32987.043
723.306;26341.389;  -10.818;33066.301
723.880;28086.760;   -8.908;33399.500
724.453;29473.625;   -9.878;33468.297
725.026;28292.326;  -11.188;33816.637
725.599;25656.518;  -11.678;32797.996
726.172;26386.219;   -9.618;33187.434
726.745;28057.676;   -8.258;35136.613
727.318;29944.971;  -12.978;35751.730
727.891;30644.869;  -12.148;35890.430
728.463;30373.828;   -8.968;34822.090
729.036;28957.146;  -10.188;32895.086
729.609;28808.705;  -11.788;31823.225
730.182;25194.258;  -11.788;31445.283
730.754;22814.738;  -10.268;32373.223
731.327;23113.848;   -9.998;33676.820
731.900;23292.068;  -12.228;33417.000
732.472;24949.408;  -13.848;31978.498
733.045;27455.541;   -8.698;30368.777
733.617;27462.439;  -10.607;30574.215
734.190;26556.166;  -11.507;31280.975
734.762;23579.051;  -13.647;31674.412
735.334;22363.846;   -9.767;31247.291
735.907;23035.049;   -9.897;29876.211
736.479;22681.318;  -11.637;29808.488
737.051;22139.910;   -9.567;30233.547
737.623;23191.354;   -8.187;31469.086
738.195;24067.750;  -11.187;31784.225
738.768;25825.953;  -12.337;32120.523
739.340;25396.635;  -12.227;32094.342
739.912;23895.086;  -11.057;31312.680
740.484;23301.750;  -10.207;31946.238
741.056;22412.664;  -10.047;32984.059
741.628;23801.346;  -13.627;33897.715
742.199;26238.240;   -7.177;33213.016
742.771;25020.127;  -10.797;31369.113
743.343;22680.113;  -11.997;31865.473
743.915;21497.693;  -12.867;32388.631
744.487;21560.725;   -7.617;31079.568
745.058;21802.557;   -9.557;30570.107
745.630;22951.271;   -9.877;29970.127
746.201;24376.947;  -14.177;29186.766
746.773;24522.449;   -9.237;28805.723
747.344;23965.736;   -9.847;29591.223
747.916;22187.607;  -11.657;31412.201
748.487;21645.643;  -10.587;32194.898
749.059;22985.545;   -8.707;32533.719
749.630;24338.123;  -10.537;32158.518
750.201;23788.129;  -11.687;30855.395
750.773;22620.805;  -11.647;28622.555
751.344;22798.678;   -7.147;28405.732
751.915;23457.684;   -9.757;28461.551
752.486;22110.074;  -12.427;27842.850
753.057;19915.783;  -12.227;27845.008
753.628;19015.361;  -10.417;27728.107
754.199;19761.496;  -11.767;27381.086
754.770;20727.525;  -11.187;25882.203
755.341;21046.830;  -10.507;25886.184
755.912;21035.553;   -9.387;26050.861
756.483;20369.521;  -10.647;26798.779
757.054;18566.852;  -11.837;27048.238
757.625;17371.316;  -12.716;26294.838
758.195;17176.762;   -9.666;26142.076
758.766;16996.010;   -8.656;26392.234
759.337;17902.518;  -12.856;26334.594
759.907;19680.449;  -13.366;27579.652
760.478;20759.125;   -8.576;28352.770
761.048;20593.242;  -10.526;27325.088
761.619;19939.695;  -11.116;26460.428
762.189;19459.328;  -12.136;26029.826
762.760;19994.980;   -9.456;26430.145
763.330;20946.178;   -7.136;26670.902
763.900;20074.496;  -11.786;26603.021
764.471;17089.318;  -11.546;25542.740
765.041;15976.684;   -8.096;24358.459
765.611;16639.264;   -8.876;23991.297
766.181;17370.145;  -12.196;24470.236
766.751;18208.502;  -11.636;24845.975
767.321;17853.709;  -10.156;24533.633
767.891;15668.959;  -11.766;24916.492
768.461;15013.207;  -14.936;24776.771
769.031;15567.860;  -12.356;24757.988
769.601;17344.725;   -7.526;24181.088
770.171;17333.750;  -10.766;23670.387
770.741;16612.217;  -13.176;22960.045
771.311;16624.490;  -10.616;22917.523
771.880;16579.365;   -9.576;23562.941
772.450;16256.488;  -10.336;24216.500
773.020;16451.996;  -13.516;24140.398
773.589;16376.587;  -13.466;24414.857
774.159;16304.279;   -8.686;23858.717
774.729;15877.680;   -9.476;22942.135
775.298;14973.348;  -13.666;22324.033
775.867;14433.140;  -11.716;21140.313
776.437;14532.932;   -9.906;20838.092
777.006;14255.505;  -12.166;20599.510
777.576;14192.376;  -12.356;20508.809
778.145;14462.151;  -11.646;20732.947
778.714;14279.721;   -8.226;21062.465
779.283;13277.507;   -9.556;20949.664
779.853;13008.788;  -14.116;20508.623
780.422;13485.098;  -11.506;20649.082
780.991;13033.667;   -9.556;21527.520
781.560;12224.538;   -9.095;22632.658
782.129;12116.066;  -12.135;23048.277
782.698;11941.392;  -10.865;23438.555
783.267;11583.816;   -9.335;23267.734
783.836;11649.672;  -11.045;22415.133
784.404;12529.000;  -13.865;20443.152
784.973;12593.314;  -13.095;19699.150
785.542;12382.552;  -11.575;19763.828
786.111;12384.075;   -9.705;20341.408
786.679;12157.567;  -12.105;20207.967
787.248;12022.917;  -12.455;19516.465
787.817;11596.492;  -11.535;18900.363
788.385;11027.583;   -9.765;17879.121
788.954;10369.681;  -14.005;17658.301
789.522;10117.485;  -11.955;17788.879
790.090;10755.360;  -10.135;18118.277
790.659;11127.591;  -10.975;18338.736
791.227;10541.511;  -13.375;18508.615
791.795;10879.662;  -12.375;17898.254
792.364;11184.352;  -10.725;17295.133
792.932;11422.146;   -9.715;16822.051
793.500;11565.823;  -12.675;17040.148
794.068;11839.795;  -13.495;17179.787
794.636;11997.897;  -10.885;16664.246
795.204;11617.102;  -11.045;16524.545
795.772;11482.094;  -13.175;17274.564
796.340;10922.808;  -12.445;17891.002
796.908;10756.168;   -9.735;17648.561
797.476;10603.860;   -9.815;17064.080
798.044;10073.020;  -13.985;16672.777
798.612; 9399.600;  -13.115;17023.996
799.180; 9224.700;  -10.185;16561.615
799.747; 9180.978;   -9.055;15962.773
800.315; 8889.188;  -12.385;15296.992
800.883; 8532.816;  -15.035;14801.771
801.450; 8424.563;  -10.365;14534.430
802.018; 8456.448;   -9.855;14173.248
802.585; 8526.769;  -11.905;14029.547
803.153; 8612.919;  -11.585;13836.846
803.720; 8559.642;   -9.095;13567.324
804.287; 8209.172;   -9.135;13360.622
804.855; 7790.142;  -11.604;13681.981
805.422; 7656.354;  -11.794;13536.560
805.989; 7508.343;  -10.734;13355.958
806.556; 7681.874;  -10.444;13747.896
807.124; 8153.971;  -12.764;13987.376
807.691; 8240.137;  -12.964;14038.674
808.258; 8025.811;  -11.134;14120.152
808.825; 7647.693;   -9.854;13860.111
809.392; 7656.575;  -10.504;13268.790
809.959; 7256.809;  -13.054;12680.389
810.526; 6877.830;   -8.294;12427.308
811.093; 6898.391;   -8.394;12030.105
811.659; 7461.591;  -12.304;11653.664
812.226; 7874.650;  -13.944;11637.183
812.793; 7546.939;  -10.484;11611.521
813.360; 6958.372;  -10.144;11885.181
813.926; 6525.100;  -11.684;12770.539
814.493; 6244.147;  -13.644;12677.638
815.060; 5857.313;   -9.724;11974.336
815.626; 5909.493;   -9.854;11594.715
816.193; 6384.701;  -13.254;11579.474
816.759; 6501.584;  -13.204;11666.972
817.325; 6731.658;   -9.434;11325.530
817.892; 7123.218;  -10.134;11105.369
818.458; 7510.723;  -13.474;10843.928
819.024; 7150.001;  -11.854;10714.406
819.591; 6819.314;  -10.244;10469.165
820.157; 6554.290;  -10.704;10235.523
820.723; 6174.229;  -12.324;10847.563
821.289; 6024.180;   -9.444;11040.980
821.855; 5979.269;   -8.374;10357.100
822.421; 5982.514;  -10.234; 9978.918
822.987; 5858.828;  -13.294; 9754.177
823.553; 5516.143;  -10.884;10065.755
824.119; 5392.101;   -8.884;10036.294
824.685; 5506.762;   -6.784;10029.192
825.251; 5552.638;  -12.004;10199.230
825.816; 5506.448;  -11.474; 9820.189
826.382; 5371.232;   -9.174; 9297.248
826.948; 5623.813;   -9.214; 9381.347
827.513; 6000.086;  -10.774; 9450.726
828.079; 5793.934;  -11.924; 9472.444
828.645; 5236.426;  -10.543; 9292.643
829.210; 5149.489;  -10.533; 9065.341
829.776; 5115.324;  -10.753; 9132.620
830.341; 5042.786;  -10.173; 9092.878
830.906; 5253.571;  -10.743; 9078.557
831.472; 5592.629;  -11.113; 8534.535
832.037; 5372.092;  -10.603; 8677.874
832.602; 4831.907;  -13.323; 8628.692
833.167; 4457.935;  -10.823; 8879.031
833.733; 4363.319;  -10.113; 9189.790
834.298; 4449.679;  -13.583; 9052.608
834.863; 4423.912;  -12.703; 8895.087
835.428; 4456.749;  -10.523; 8824.266
835.993; 4536.411;   -6.963; 8845.385
836.558; 4454.307;  -10.763; 8888.563
837.123; 4501.964;   -9.903; 8966.582
837.688; 4637.636;   -9.913; 8617.860
838.253; 4768.270;  -10.283; 8590.699
838.817; 4918.286;  -12.963; 8443.797
839.382; 4872.482;  -14.243; 8799.356
839.947; 4588.370;  -10.733; 8810.595
840.511; 4266.326;   -9.383; 8796.394
841.076; 3899.749;  -12.563; 8347.231
841.641; 3923.802;  -12.953; 8224.330
842.205; 3969.479;   -7.043; 8223.349
842.770; 4102.990;   -8.163; 8622.107
843.334; 4393.858;  -12.503; 8410.386
843.898; 4401.537;  -11.693; 8337.465
844.463; 4383.868;  -10.203; 8506.283
845.027; 4121.623;   -9.533; 8280.962
845.591; 3931.407;  -13.443; 8231.141
846.156; 3910.670;  -13.143; 7969.179
846.720; 3777.144;   -9.433; 7768.278
847.284; 3653.660;  -11.033; 7630.957
847.848; 3464.737;  -10.403; 7472.395
848.412; 3326.298;  -11.553; 7437.394
848.976; 3359.363;   -8.393; 7674.592
849.540; 3337.216;   -8.713; 7836.011
850.104; 3436.718;  -12.463; 7913.669
850.668; 3720.903;  -12.973; 7694.508
851.232; 3773.550;  -10.793; 7756.887
851.796; 3595.221;  -10.662; 7926.545
852.359; 3311.960;  -13.082; 7827.844
852.923; 3208.969;  -12.192; 7641.163
853.487; 3073.134;  -11.912; 7342.501
854.050; 3014.785;  -10.892; 7042.820
854.614; 3154.827;  -13.992; 7151.338
855.177; 3277.559;  -11.732; 7105.077
855.741; 3298.115;   -8.962; 6989.675
856.304; 3152.380;   -9.442; 6596.634
856.868; 3110.444;  -14.192; 6356.272
857.431; 3270.376;  -12.702; 6468.571
857.995; 3396.680;   -9.942; 6373.210
858.558; 3437.096;   -9.112; 6324.448
859.121; 3179.143;  -12.932; 6408.327
859.684; 3032.642;  -13.442; 6347.886
860.247; 3100.210;  -10.632; 6321.264
860.810; 3051.952;  -11.272; 6301.903
861.374; 2782.348;   -9.832; 6607.881
861.937; 2519.274;  -11.762; 6408.200
862.500; 2488.882;   -9.722; 6572.639
863.062; 2610.281;  -10.512; 6387.297
863.625; 2740.457;  -11.232; 6190.836
864.188; 2882.722;  -14.112; 5807.254
864.751; 2951.313;  -11.302; 5682.413
865.314; 2843.300;  -10.112; 5547.492
865.876; 2696.479;  -12.182; 5500.150
866.439; 2722.857;  -10.722; 5415.909
867.002; 2648.644;   -9.252; 5501.567
867.564; 2421.394;   -9.572; 5413.946
868.127; 2218.879;  -13.142; 5160.325
868.689; 2171.869;  -12.902; 5133.183
869.252; 2124.277;   -9.732; 5252.382
869.814; 2026.934;   -9.432; 5297.141
870.377; 2035.895;  -11.552; 5390.919
870.939; 2121.670;   -9.052; 5599.898
871.501; 2174.252;  -10.982; 5248.336
872.063; 2176.356;  -12.292; 4854.235
872.626; 2141.018;  -14.912; 4817.074
873.188; 2119.027;  -13.112; 4987.732
873.750; 2073.767;  -13.442; 4868.651
874.312; 2005.943;   -9.402; 4779.330
874.874; 1933.576;  -11.062; 4866.348
875.436; 1876.657;  -13.931; 4718.887
875.998; 1861.887;   -9.561; 4660.005
876.560; 1843.936;  -11.321; 4462.964
877.122; 1778.497;  -12.221; 4145.042
877.683; 1691.360;  -12.191; 4056.481
878.245; 1632.551;  -12.101; 3950.740
878.807; 1665.476;   -8.971; 4058.958
879.369; 1658.309;  -12.071; 3954.677
879.930; 1551.226;  -14.621; 3941.495
880.492; 1501.250;  -10.311; 4067.014
881.053; 1468.601;  -10.901; 3859.633
881.615; 1369.126;  -14.411; 3776.071
882.176; 1316.854;  -13.761; 3734.750
882.738; 1312.594;   -9.181; 3678.489
883.299; 1308.093;  -11.791; 3405.407
883.860; 1312.078;  -13.121; 3351.106
884.422; 1302.423;  -11.211; 3394.044
884.983; 1248.723;  -10.091; 3166.443
885.544; 1151.004;   -8.461; 3189.802
886.105; 1083.250;  -12.361; 3160.360
886.666; 1039.045;  -14.141; 3093.059
887.227;  989.185;  -11.361; 2941.957
887.788;  912.645;  -11.401; 2974.836
888.349;  841.536;  -13.791; 2721.214
888.910;  846.291;  -13.191; 2696.493
889.471;  854.951;   -9.881; 2560.172
890.032;  827.036;   -9.881; 2558.190
890.593;  792.741;  -10.371; 2567.669
891.153;  772.103;  -13.301; 2460.307
891.714;  730.194;  -11.431; 2372.046
892.275;  692.463;  -11.291; 2309.505
892.835;  653.724;  -11.471; 2382.543
893.396;  597.859;  -11.541; 2295.502
893.956;  545.575;  -11.181; 2162.420
894.517;  512.260;  -11.741; 2125.439
895.077;  511.051;  -11.671; 2086.978
895.638;  515.564;  -11.311; 2126.316
896.198;  488.994;   -9.831; 1838.275
896.758;  443.799;   -8.421; 1892.813
897.319;  410.461;  -12.351; 1792.232
897.879;  397.723;  -13.511; 1762.751
898.439;  373.559;  -12.001; 1661.149
898.999;  347.170;  -10.180; 1781.468
899.559;  334.180;  -12.030; 1703.347
900.119;  329.968;  -15.710; 1537.525
900.679;  331.457;   -8.900; 1638.384
901.239;  318.345;   -8.340; 1527.902
901.799;  308.354;  -13.910; 1456.441
902.359;  300.456;  -13.460; 1357.140
902.919;  291.152;  -11.490; 1331.118
903.479;  276.679;  -12.110; 1317.257
904.038;  254.497;  -11.720; 1262.595
904.598;  240.870;  -13.610; 1152.034
905.158;  237.071;  -11.040; 1240.893
905.717;  228.394;  -10.900; 1233.691
906.277;  216.478;  -15.080; 1217.330
906.836;  208.545;  -13.380; 1222.408
907.396;  201.715;  -10.780; 1193.047
907.955;  195.372;   -8.500; 1182.526
908.515;  188.288;  -12.760; 1099.364
909.074;  183.532;  -11.900; 1092.863
909.633;  178.276;   -8.950; 1069.121
910.192;  173.907;   -8.770; 1196.460
910.752;  169.528;  -12.390; 1029.960
911.311;  165.481;  -13.680; 1009.780
911.870;  163.336;  -12.370;  971.460
912.429;  163.999;  -10.900; 1094.080
912.988;  161.260;  -11.690; 1081.060
913.547;  156.383;  -13.240;  940.380
914.106;  153.268;  -11.990;  999.420
914.665;  148.343;   -9.990;  984.020
915.224;  147.307;  -12.880; 1035.760
915.782;  147.718;  -12.350;  922.560
916.341;  147.635;   -9.110; 1049.840
916.900;  143.917;   -9.270;  925.260
917.458;  140.970;  -13.240;  884.220
918.017;  141.396;  -13.550;  942.600
918.576;  141.836;  -12.320;  904.440
919.134;  137.992;  -11.490;  837.980
919.693;  136.533;  -13.670;  893.060
920.251;  134.660;  -15.470;  876.500
920.809;  133.910;  -11.290;  839.580
921.368;  133.109;  -10.210;  885.360
921.926;  131.143;  -12.140;  842.940
922.484;  130.957;  -13.080;  903.360
923.042;  130.939;  -11.720;  880.340
923.601;  133.090;   -7.480;  998.680
924.159;  130.991;  -11.570;  935.560
924.717;  128.347;  -13.840;  841.080
925.275;  129.065;  -10.640;  903.240
925.833;  128.445;  -11.540;  779.320
926.391;  128.223;  -12.960;  938.380
926.949;  126.181;  -14.130;  857.680
927.506;  127.598;  -11.750;  903.500
928.064;  127.054;  -10.250;  877.580
928.622;  125.952;  -13.030;  880.100
929.180;  125.654;  -13.400;  814.180
929.737;  128.768;  -10.700;  808.540
930.295;  131.333;  -10.070;  928.480
930.853;  133.225;  -11.960;  849.100
931.410;  134.012;  -13.120;  821.120
931.968;  133.895;  -10.770;  940.660
932.525;  132.966;  -10.680;  909.380
933.082;  132.860;  -13.130;  811.440
933.640;  133.022;  -13.210;  925.900
934.197;  131.795;  -11.060;  886.360
934.754;  132.771;   -9.580;  897.780
935.312;  134.806;  -14.000;  863.340
935.869;  140.451;  -10.710; 1012.980
936.426;  140.396;   -9.860;  872.800
936.983;  141.224;   -9.710;  889.020
937.540;  138.621;  -13.990;  838.280
938.097;  137.872;  -14.040;  940.120
938.654;  139.542;  -10.310;  898.860
939.211;  142.154;  -10.560;  952.480
939.768;  144.155;  -13.900;  915.420
940.324;  147.933;  -14.760;  904.200
940.881;  149.029;  -10.370;  878.500
941.438;  148.894;   -8.260; 1021.200
941.995;  144.404;  -12.540;  992.560
942.551;  141.051;  -14.670;  875.620
943.108;  142.013;  -10.450;  937.920
943.664;  144.878;  -10.750;  869.340
944.221;  147.752;  -11.550; 1088.140
944.777;  146.581;  -14.770;  869.680
945.334;  149.076;  -12.820;  884.840
945.890;  151.023;  -10.130;  946.480
946.446;  150.307;  -13.470;  947.020
947.003;  151.369;  -12.120;  964.940
947.559;  154.198;   -9.980; 1063.040
948.115;  152.190;   -9.080; 1026.540
948.671;  149.905;  -10.830;  967.300
949.227;  147.296;  -12.440;  859.560
949.783;  145.650;  -12.910;  858.900
950.339;  147.640;  -10.270;  991.000
950.895;  146.404;  -13.630; 1023.840
951.451;  146.285;  -15.100;  925.280
952.007;  147.879;  -11.330;  998.540
952.563;  148.489;  -10.580;  937.780
953.118;  147.197;  -13.440;  904.940
953.674;  146.915;  -12.710;  935.780
954.230;  148.331;  -10.350;  949.640
954.785;  145.914;   -9.190;  936.640
955.341;  143.505;  -11.200;  998.160
955.897;  142.290;  -16.560;  834.660
956.452;  143.175;  -12.570;  953.840
957.008;  140.836;   -7.970; 1083.640
957.563;  137.724;  -11.940; 1009.540
958.118;  134.745;  -13.450;  877.700
958.674;  136.660;  -12.030;  946.780
959.229;  137.311;   -9.410; 1013.980
959.784;  133.667;  -12.000;  832.400
960.339;  133.249;  -14.780; 1001.280
960.894;  129.230;   -9.860;  963.760
961.449;  125.262;   -9.970;  859.960
962.004;  125.264;  -10.900; 1212.840
962.559;  120.625;  -13.150;  860.140
963.114;  119.064;  -13.740;  742.480
963.669;  118.175;   -9.820;  915.500
964.224;  114.819;  -13.890;  874.340
964.779;  114.159;  -12.600;  828.420
965.334;  116.552;  -10.950; 1017.860
965.888;  115.428;  -11.170;  875.360
966.443;  117.242;  -12.540;  972.380
966.998;  115.843;  -15.780;  819.460
967.552;  116.334;   -9.760;  908.380
968.107;  111.763;   -9.060;  868.300
968.661;  112.569;  -11.950;  922.440
969.216;  113.839;  -12.800;  856.280
969.770;  114.886;  -11.210;  917.200
970.324;  113.146;  -11.610;  923.140
970.879;  108.972;  -11.370;  947.180
971.433;  106.233;  -12.540;  952.720
971.987;  102.034;  -11.320;  895.340
972.541;   98.759;  -10.720;  917.100
973.095;   97.835;   -9.680; 1009.460
973.649;   97.443;  -11.440;  809.480
974.203;   97.967;  -11.210;  829.040
974.757;   98.547;  -10.240;  855.220
975.311;   98.230;  -13.720;  872.600
975.865;   96.997;  -13.770;  881.820
976.419;   96.200;  -11.690;  857.400
976.973;   95.879;   -9.510;  849.620
977.526;   96.477;  -12.620;  949.920
978.080;   96.585;  -12.010;  796.780
978.634;   98.207;  -10.170;  921.320
979.187;   95.771;   -9.020;  905.400
979.741;   92.374;   -9.820; 1018.380
980.294;   88.223;  -14.870;  789.160
980.848;   87.834;  -12.380;  717.220
981.401;   89.145;  -10.350;  816.540
981.955;   89.433;  -13.720;  844.300
982.508;   89.383;  -11.490;  746.340
983.061;   90.413;  -10.000;  915.260
983.615;   87.467;  -11.480;  798.800
984.168;   83.698;  -13.220;  770.080
984.721;   83.573;  -13.960;  880.760
985.274;   83.972;  -10.870;  867.500
985.827;   81.687;   -9.790;  834.220
986.380;   78.866;  -13.120;  721.340
986.933;   77.682;  -12.450;  864.800
987.486;   76.487;  -10.210;  861.920
988.039;   76.270;   -8.430;  863.100
988.591;   72.491;  -10.520;  893.260
989.144;   71.381;  -14.860;  737.260
989.697;   70.998;  -13.080;  758.740
990.250;   72.059;  -10.150;  858.100
990.802;   70.672;  -13.430;  755.860
991.355;   70.754;  -12.750;  974.880
991.907;   68.861;  -12.040;  864.320
992.460;   66.968;  -11.330;  753.760
993.012;   65.001;  -13.610;  749.540
993.565;   64.681;  -13.460;  711.360
994.117;   66.764;   -9.360;  950.780
994.669;   63.351;  -11.300;  701.320
995.221;   60.524;  -13.540;  791.920
995.774;   59.216;  -13.430;  787.580
996.326;   57.733;  -12.520;  740.220
996.878;   57.542;  -10.950;  838.420
997.430;   54.451;  -14.300;  699.860
997.982;   54.277;  -13.760;  750.140
998.534;   54.097;  -11.530;  739.060
999.086;   52.888;  -10.310;  738.220
999.638;   50.636;  -12.530;  661.380
1000.190;   49.790;  -11.840;  699.320
1000.741;   51.367;  -10.260;  742.700
1001.293;   50.382;   -8.860;  686.020
1001.845;   47.952;  -13.700;  676.640
1002.396;   48.516;  -12.100;  743.400
1002.948;   48.933;  -12.760;  737.400
1003.500;   47.490;  -10.380;  723.780
1004.051;   46.636;  -11.900;  907.580
1004.603;   45.338;  -12.250;  791.820
1005.154;   42.483;  -13.210;  608.980
1005.705;   41.514;  -10.950;  723.960
1006.257;   39.768;  -13.880;  707.220
1006.808;   39.332;  -12.840;  685.460
1007.359;   40.383;  -10.570;  763.240
1007.910;   39.124;   -9.620;  646.640
1008.461;   37.920;  -13.630;  732.940
1009.013;   37.138;  -17.200;  588.340
1009.564;   38.633;  -10.200;  793.520
1010.115;   35.840;  -12.570;  597.040
1010.665;   35.929;  -15.150;  602.160
1011.216;   35.617;  -14.480;  667.920
1011.767;   35.963;  -11.340;  697.920
1012.318;   35.879;   -9.780;  736.980
1012.869;   33.651;  -12.380;  679.000
1013.419;   34.186;  -15.560;  603.120
1013.970;   33.878;  -11.010;  666.640
1014.521;   34.095;  -11.610;  620.620
1015.071;   32.977;  -13.450;  670.380
1015.622;   33.390;  -13.870;  635.460
1016.172;   33.750;  -11.610;  596.820
1016.723;   33.523;  -12.120;  614.380
1017.273;   31.043;  -13.620;  604.160
1017.823;   32.290;  -14.140;  650.340
1018.374;   32.544;  -12.800;  611.760
1018.924;   31.923;  -12.340;  716.880
1019.474;   31.699;  -11.410;  718.880
1020.024;   30.912;  -14.770;  657.580
1020.574;   31.874;   -9.780;  726.160
1021.124;   31.779;   -8.560;  673.580
1021.674;   29.389;  -15.190;  559.120
1022.224;   31.608;  -13.530;  708.940
1022.774;   31.805;  -13.280;  668.820
1023.324;   31.400;  -10.690;  753.520
1023.874;   32.003;  -10.240;  875.760
1024.423;   29.798;  -12.540;  613.700
1024.973;   29.532;  -10.010;  610.760
1025.523;   28.529;  -10.550;  620.960
1026.072;   27.471;  -13.560;  606.420
1026.622;   28.146;  -15.120;  675.740
1027.172;   30.385;  -11.260;  715.660
1027.721;   28.874;  -11.410;  601.220
1028.270;   28.147;  -13.530;  663.400
1028.820;   28.660;  -13.680;  638.080
1029.369;   28.191;  -13.520;  612.700
1029.918;   28.390;  -10.980;  649.840
1030.468;   26.349;  -13.530;  564.780
1031.017;   27.618;  -13.170;  634.800
1031.566;   26.663;  -12.200;  608.900
1032.115;   27.566;   -9.960;  694.500
1032.664;   25.505;  -13.210;  596.480
1033.213;   26.432;  -12.500;  735.420
1033.762;   27.259;  -11.910;  635.620
1034.311;   26.556;   -9.640;  677.220
1034.860;   26.376;  -13.310;  691.000
1035.408;   25.789;  -11.830;  722.720
1035.957;   27.523;  -12.000;  719.540
1036.506;   25.479;  -11.690;  530.800
1037.055;   25.804;  -10.990;  844.320
1037.603;   25.620;  -15.120;  664.000
1038.152;   24.099;  -12.450;  534.760
1038.700;   24.234;  -10.560;  585.740
1039.249;   23.350;  -11.080;  681.220
1039.797;   24.809;  -12.540;  633.360
1040.345;   25.127;  -11.920;  705.420
1040.894;   23.773;  -11.410;  625.300
1041.442;   23.145;  -14.320;  632.200
1041.990;   22.715;  -16.240;  559.160
1042.538;   23.055;  -11.680;  536.180
1043.087;   23.389;  -10.760;  570.860
1043.635;   23.269;  -11.850;  670.500
1044.183;   22.199;  -15.480;  586.400
1044.731;   23.235;  -11.770;  576.000
1045.279;   22.915;  -13.090;  674.920
1045.827;   24.093;  -12.440;  892.400
1046.374;   22.039;  -13.840;  515.420
1046.922;   21.948;  -13.220;  590.580
1047.470;   23.130;  -10.230;  691.300
1048.018;   21.945;  -14.590;  647.960
1048.565;   22.851;  -12.050;  708.600
1049.113;   21.261;  -11.650;  557.000
1049.660;   21.999;  -10.510;  629.660
1050.208;   21.264;  -13.310;  675.640
1050.755;   20.286;  -15.900;  606.580
1051.303;   21.930;  -11.430;  686.820
1051.850;   20.782;   -8.480;  635.120
1052.397;   18.017;  -15.010;  473.960
1052.945;   19.659;  -13.960;  617.760
1053.492;   21.752;  -13.150;  741.840
1054.039;   21.802;   -9.630;  720.180
1054.586;   19.012;  -13.680;  557.240
1055.133;   20.604;  -14.570;  693.140
1055.680;   20.756;  -13.820;  646.620
1056.227;   19.664;  -11.730;  542.780
1056.774;   20.026;  -12.480;  794.980
1057.321;   18.290;  -13.930;  523.260
1057.868;   19.682;  -11.690;  651.320
1058.415;   19.520;   -9.520;  651.980
1058.961;   18.875;  -13.160;  678.940
1059.508;   18.329;  -12.920;  643.820
1060.055;   18.978;  -11.920;  581.780
1060.601;   19.659;  -11.500;  624.300
1061.148;   18.457;  -14.330;  616.820
1061.694;   18.120;  -16.870;  592.580
1062.241;   18.631;  -10.330;  596.320
1062.787;   18.671;  -10.620;  663.140
1063.334;   19.311;  -10.110;  808.560
1063.880;   18.258;  -13.400;  668.360
1064.426;   18.339;  -10.680;  706.820
1064.972;   17.405;   -9.920;  601.340
1065.518;   15.498;  -10.980;  566.640
1066.065;   17.265;  -14.890;  624.460
1066.611;   17.097;  -12.870;  598.800
1067.157;   17.440;  -12.950;  641.860
1067.703;   16.138;  -13.540;  668.480
1068.249;   16.538;  -13.540;  605.220
1068.794;   17.152;  -12.600;  626.880
1069.340;   16.326;  -10.620;  578.960
1069.886;   15.704;  -12.830;  590.700
1070.432;   15.088;  -14.870;  541.720
1070.977;   16.199;  -11.980;  601.080
1071.523;   15.469;   -8.200;  573.060
1072.068;   15.896;  -12.330;  582.000
1072.614;   15.364;  -16.370;  527.760
1073.160;   16.908;  -11.100;  687.040
1073.705;   15.076;  -10.480;  572.520
1074.250;   14.342;  -14.520;  559.900
1074.796;   15.654;  -11.460;  655.160
1075.341;   16.153;  -11.950;  664.100
1075.886;   15.893;  -11.460;  594.240
1076.431;   13.970;  -13.770;  649.880
1076.976;   14.144;  -12.680;  639.220
1077.521;   14.546;  -13.170;  583.080
1078.067;   14.044;  -10.860;  579.400
1078.612;   14.100;  -13.920;  661.620
1079.156;   13.764;  -13.880;  601.540
1079.701;   14.263;  -13.120;  693.260
1080.246;   14.795;   -9.940;  696.300
1080.791;   13.648;  -14.740;  625.020
1081.336;   13.716;  -13.750;  659.320
1081.880;   14.526;  -13.400;  649.680
1082.425;   13.076;  -12.220;  573.480
1082.970;   13.935;  -11.610;  717.040
1083.514;   13.239;  -13.580;  597.000
1084.059;   13.154;  -12.810;  586.720
1084.603;   13.113;  -12.320;  565.840
1085.147;   12.055;  -13.190;  645.220
1085.692;   13.652;  -12.480;  716.800
1086.236;   12.120;  -13.020;  503.140
1086.780;   14.224;   -9.190;  751.440
1087.325;   12.331;  -12.480;  654.620
1087.869;   12.405;  -12.450;  610.700
1088.413;   13.542;  -12.240;  705.040
1088.957;   10.475;   -9.020;  543.400
1089.501;   13.227;  -10.320;  766.640
1090.045;   13.084;  -12.720;  726.480
1090.589;   10.870;  -13.690;  569.920
1091.133;   11.934;  -10.020;  673.340
1091.676;   10.951;  -12.330;  591.940
1092.220;   11.519;  -14.970;  600.920
1092.764;   13.202;  -12.430;  706.960
1093.307;   12.013;   -9.800;  673.780
1093.851;    9.455;  -14.970;  556.540
1094.395;   11.332;  -15.310;  683.140
1094.938;   11.189;  -10.370;  632.520
1095.482;   11.333;  -11.050;  559.800
1096.025;   11.080;  -11.840;  710.880
1096.568;   11.466;  -12.840;  779.280
1097.112;    9.868;  -14.700;  508.180
1097.655;   11.048;   -8.720;  603.000
1098.198;    8.367;  -13.610;  600.180
1098.741;    9.237;  -13.350;  612.860
1099.285;   11.469;  -11.230;  657.300
1099.828;    8.569;  -11.840;  439.400
1100.371;    9.408;  -10.840;  608.160
1100.914;   10.166;  -14.190;  682.660
1101.457;   10.180;  -11.240;  679.900
1101.999;    8.378;  -11.270;  584.680
1102.542;    8.711;  -11.480;  641.440
1103.085;    8.315;  -11.750;  658.500
1103.628;   10.555;  -11.400;  762.060
1104.170;    9.027;  -10.490;  588.280
1104.713;    8.634;  -10.600;  646.700
1105.256;    8.372;  -14.360;  557.440
1105.798;    8.268;  -13.210;  499.980
1106.341;   10.256;  -10.270;  728.900
1106.883;    7.490;  -12.200;  521.340
1107.425;    8.254;  -13.110;  668.180
1107.968;    9.072;  -12.840;  612.380
1108.510;    9.013;   -6.480;  684.960
1109.052;    6.749;  -13.940;  612.620
1109.594;    7.386;  -13.690;  554.440
1110.136;    9.581;  -11.880;  643.220
1110.679;    7.655;   -9.500;  633.080
1111.221;    7.591;  -14.160;  604.460
1111.763;    7.272;  -13.980;  559.220
1112.304;    6.917;  -13.880;  547.140
1112.846;    7.783;  -12.210;  666.240
1113.388;    9.419;  -11.390;  942.180
1113.930;    7.252;  -14.540;  694.200
1114.472;    7.033;  -12.640;  606.540
1115.013;    6.079;  -11.620;  551.280
1115.555;    5.785;  -13.640;  587.100
1116.097;    5.910;  -15.380;  579.480
1116.638;    7.529;  -12.640;  684.600
1117.180;    8.127;   -9.850;  667.740
1117.721;    5.987;  -13.690;  568.580
1118.262;    6.528;  -12.680;  677.960
1118.804;    8.114;  -12.530;  637.340
1119.345;    5.746;  -11.690;  578.400
1119.886;    6.538;  -13.380;  704.040
1120.427;    5.331;  -14.070;  589.020
1120.969;    6.293;  -13.500;  597.920
1121.510;    5.252;  -11.480;  563.060
1122.051;    5.738;  -12.830;  723.580
1122.592;    4.674;  -14.290;  655.420
1123.133;    4.513;  -12.400;  547.940
1123.673;    6.827;  -10.130;  706.480
1124.214;    4.714;  -12.930;  612.460
1124.755;    5.354;  -14.380;  639.460
1125.296;    5.777;  -14.000;  627.320
1125.836;    5.861;  -10.070;  691.500
1126.377;    3.726;  -12.640;  599.660
1126.918;    5.724;  -12.960;  614.980
1127.458;    4.299;  -13.350;  622.220
1127.999;    5.087;  -10.750;  656.980
1128.539;    4.254;  -12.350;  694.240
1129.079;    3.910;  -14.860;  632.720
1129.620;    4.851;  -13.840;  558.100
1130.160;    4.747;  -12.330;  539.480
1130.700;    3.875;  -14.530;  640.840
1131.240;    5.135;  -12.530;  643.700
1131.781;    4.562;  -14.450;  619.680
1132.321;    4.485;   -9.790;  599.120
1132.861;    2.219;  -14.860;  564.200
1133.401;    3.176;  -14.290;  593.940
1133.941;    4.365;  -11.750;  626.280
1134.481;    3.113;   -9.920;  597.580
1135.020;    2.239;  -12.290;  609.160
1135.560;    3.245;  -11.650;  674.940
1136.100;    3.946;  -16.270;  501.160
1136.640;    2.317;  -10.890;  510.480
1137.179;    1.956;  -14.180;  537.960
1137.719;    3.527;  -16.250;  605.400
1138.258;    3.928;  -14.230;  587.360
1138.798;    3.671;   -9.090;  663.780
1139.337;    1.082;  -15.130;  482.840
1139.877;    2.975;  -13.680;  642.360
1140.416;    5.564;  -11.320;  878.060
1140.955;    2.427;  -10.860;  535.380
1141.494;    1.930;  -12.920;  669.280
1142.034;    2.479;  -13.930;  583.520
1142.573;    3.847;  -11.440;  646.280
1143.112;    2.186;  -12.000;  553.480
1143.651;    1.869;  -13.670;  536.480
1144.190;    2.992;  -12.730;  691.640
1144.729;    2.584;  -14.560;  607.420
1145.267;    2.520;  -11.830;  584.900
1145.806;    1.780;  -12.230;  637.040
1146.345;    0.712;  -14.130;  635.020
1146.884;    2.115;  -11.590;  622.500
1147.422;    1.416;  -12.550;  533.060
1147.961;    2.703;  -11.180;  708.460
1148.500;    1.646;  -11.510;  669.720
1149.038;    2.841;  -11.640;  632.500
1149.577;    2.913;  -10.130;  698.640
1150.115;   -0.651;  -13.970;  452.280
1150.653;    1.239;  -14.520;  607.340
1151.192;    2.001;  -12.810;  552.920
1151.730;    2.151;   -9.100;  652.560
1152.268;    0.259;  -12.220;  589.520
1152.806;    0.291;  -14.140;  571.180
1153.344;    0.031;  -12.350;  577.640
1153.882;    1.821;   -8.980;  600.060
1154.421;   -0.518;  -15.190;  470.620
1154.958;   -0.254;  -15.210;  595.240
1155.496;    2.110;  -12.850;  645.280
1156.034;    0.333;   -9.940;  721.880
1156.572;    1.362;  -13.570;  667.060
1157.110;   -0.729;  -14.590;  473.940
1157.647;    1.642;  -13.030;  676.960
1158.185;   -0.346;  -12.140;  564.320
1158.723;   -2.247;  -14.390;  509.200
1159.260;    0.238;  -14.090;  701.700
1159.798;    0.955;  -11.920;  658.160
1160.335;   -0.557;  -11.110;  631.820

