
Integration time [ms]:   3.882
Averaging Nr. [scans]: 1000
Smoothing Nr. [pixels]: 0
Data measured with spectrometer [name]: 7414430SP
Wave   ;Sample   ;Dark     ;Reference
[nm]   ;[counts] ;[counts] ;[counts] 

288.544;  137.900;    7.153;  793.890
289.143;  142.598;    8.402;  681.602
289.742;  143.760;    7.062;  828.814
290.341;  131.316;    0.191;  789.841
290.940;  121.379;    0.321;  730.702
291.538;  122.187;    3.811;  881.108
292.137;  120.817;   -3.438;  792.581
292.736;  124.087;   -2.809;  975.101
293.335;  120.735;   -5.239;  735.086
293.934;  121.879;   -4.939;  781.677
294.532;  122.749;   -2.199; 1031.958
295.131;  108.735;   -6.831;  834.394
295.730;  107.633;   -6.620;  809.588
296.328;  104.897;   -6.471;  783.442
296.927;  104.536;   -6.571;  779.652
297.525;  106.880;   -7.391;  781.236
298.124;   98.191;   -9.402;  654.009
298.722;  103.083;   -5.781;  761.933
299.321;  100.440;   -6.351;  708.597
299.919;   98.637;   -8.661;  751.918
300.518;   93.724;  -11.922;  689.338
301.116;   95.477;   -6.941;  691.381
301.715;   95.708;   -5.471;  730.222
302.313;   95.082;   -8.361;  704.943
302.911;   90.731;   -9.082;  733.830
303.509;   95.324;   -4.571;  925.627
304.108;   92.583;   -7.111;  760.383
304.706;   93.813;   -7.681;  801.664
305.304;   88.554;   -9.162;  796.707
305.902;   92.696;   -6.761;  784.484
306.500;   88.376;   -6.921;  728.200
307.098;   87.188;   -6.491;  746.560
307.696;   86.177;   -6.941;  780.432
308.294;   85.760;   -6.301;  731.359
308.892;   87.397;   -4.771;  759.769
309.490;   83.859;   -5.141;  712.161
310.088;   82.743;   -2.912;  788.444
310.686;   86.977;   -0.421;  821.749
311.284;   82.544;   -3.461;  766.040
311.882;   80.959;   -6.282;  731.225
312.480;   78.145;   -3.632;  697.167
313.078;   79.199;   -2.112;  808.331
313.675;   80.428;   -1.931;  691.600
314.273;   74.925;   -1.442;  797.837
314.871;   75.259;   -3.002;  589.829
315.468;   71.950;   -2.252;  652.090
316.066;   75.283;   -1.091;  694.427
316.664;   68.580;   -4.512;  656.351
317.261;   73.396;   -0.062;  910.128
317.859;   69.089;   -0.952;  768.735
318.456;   68.887;    0.719;  830.096
319.054;   65.624;   -4.002;  787.828
319.651;   64.334;   -4.972;  759.928
320.249;   63.915;   -1.162;  810.188
320.846;   61.410;   -2.651;  714.286
321.443;   59.124;   -3.832;  832.135
322.041;   56.392;   -4.312;  812.315
322.638;   53.967;   -3.872;  701.456
323.235;   55.224;   -4.361;  665.683
323.833;   52.779;   -4.821;  740.354
324.430;   49.721;   -6.971;  615.900
325.027;   50.509;   -4.361;  876.855
325.624;   49.891;   -5.581;  644.532
326.221;   47.326;   -6.601;  689.717
326.818;   46.646;   -7.301;  818.332
327.415;   49.016;   -6.180;  748.828
328.012;   48.511;   -5.920;  690.585
328.609;   46.201;   -8.390;  731.389
329.206;   45.566;   -6.121;  778.621
329.803;   44.543;   -5.241;  737.841
330.400;   45.942;   -7.420;  704.260
330.997;   47.572;   -5.931;  817.147
331.594;   45.643;   -5.641;  788.185
332.191;   50.366;   -6.451;  728.722
332.787;   53.594;   -4.651;  844.463
333.384;   51.575;   -5.472;  763.093
333.981;   49.033;   -6.303;  815.687
334.578;   52.213;   -5.892;  708.378
335.174;   54.238;   -4.102;  731.469
335.771;   54.112;   -8.053;  836.456
336.367;   50.870;   -7.363;  710.631
336.964;   55.958;   -6.243;  793.266
337.561;   53.039;   -5.653;  731.112
338.157;   49.453;   -7.074;  911.916
338.754;   47.402;   -5.474;  796.589
339.350;   45.817;   -5.624;  722.493
339.946;   48.054;   -5.054;  773.135
340.543;   41.393;   -6.695;  846.136
341.139;   34.911;   -6.215;  720.836
341.735;   34.118;   -5.746;  772.593
342.332;   32.429;   -7.335;  691.472
342.928;   32.229;   -4.835;  795.394
343.524;   26.977;   -4.586;  761.684
344.120;   24.340;   -3.946;  738.562
344.716;   27.064;   -4.835;  723.717
345.313;   24.096;   -5.325;  795.342
345.909;   20.105;   -6.535;  627.336
346.505;   21.861;   -4.725;  740.247
347.101;   22.703;   -4.164;  827.864
347.697;   22.341;   -5.274;  785.398
348.293;   15.819;   -7.145;  627.244
348.889;   17.496;   -4.364;  745.914
349.485;   16.881;   -6.404;  688.205
350.081;   17.110;   -7.534;  772.592
350.676;   13.473;   -6.995;  691.606
351.272;   18.243;   -3.544;  809.530
351.868;   17.316;   -5.324;  780.497
352.464;   14.924;   -7.204;  723.932
353.059;   11.976;   -6.894;  646.017
353.655;   14.943;   -3.754;  777.063
354.251;   15.615;   -6.143;  759.845
354.846;    9.995;   -9.464;  740.646
355.442;    8.348;   -7.555;  753.071
356.038;    9.817;   -5.474;  751.708
356.633;    9.569;   -5.914;  728.594
357.229;    7.904;   -8.944;  724.757
357.824;    6.456;   -6.794;  703.600
358.420;    5.367;   -5.754;  679.726
359.015;    6.154;   -5.664;  695.357
359.610;    7.191;   -8.004;  763.920
360.206;    0.997;   -8.815;  603.240
360.801;    4.306;   -8.834;  646.503
361.396;    6.914;   -6.274;  725.975
361.992;    2.170;   -8.574;  668.220
362.587;   -0.671;   -9.265;  670.160
363.182;    1.587;   -5.484;  689.631
363.777;    1.396;   -5.164;  738.242
364.372;    2.201;   -6.954;  737.314
364.967;   -1.761;   -7.065;  680.744
365.563;    2.809;   -5.684;  815.567
366.158;   -0.372;   -6.484;  685.161
366.753;    0.204;   -8.004;  649.263
367.348;   -1.042;  -10.114;  746.056
367.942;   -1.576;   -7.764;  697.298
368.537;   -2.661;   -4.554;  754.245
369.132;   -2.448;   -7.664;  703.428
369.727;   -6.577;   -8.905;  638.079
370.322;   -5.593;   -4.945;  580.186
370.917;   -5.643;   -7.095;  710.646
371.511;   -1.783;   -6.574;  861.834
372.106;   -5.196;   -6.515;  776.964
372.701;   -8.810;   -8.225;  585.988
373.296;   -3.281;   -4.494;  863.135
373.890;   -8.613;   -7.965;  647.840
374.485;  -10.133;   -9.745;  691.199
375.079;   -5.791;   -5.554;  738.685
375.674;   -4.186;   -4.724;  812.970
376.268;   -8.661;   -8.365;  691.759
376.863;  -14.949;   -8.126;  580.327
377.457;   -9.092;   -6.045;  662.490
378.052;   -9.243;   -6.835;  764.884
378.646;  -10.887;   -9.375;  741.167
379.240;  -10.930;   -6.185;  721.176
379.835;   -9.880;   -6.135;  636.978
380.429;  -12.978;   -8.365;  562.557
381.023;  -12.379;   -7.935;  779.205
381.617;  -15.019;   -8.325;  680.106
382.212;  -11.971;   -7.405;  685.303
382.806;  -10.915;   -4.155;  760.690
383.400;  -15.054;   -8.945;  672.281
383.994;  -15.698;   -8.365;  664.870
384.588;  -11.278;   -7.824;  697.701
385.182;  -10.342;   -7.984;  726.624
385.776;  -11.857;  -10.404;  706.875
386.370;  -15.839;   -7.335;  681.968
386.964;  -13.621;   -7.485;  684.155
387.558;  -12.895;   -8.174;  598.360
388.152;  -15.309;  -10.415;  681.959
388.745;  -13.597;   -9.595;  814.707
389.339;  -11.431;   -6.454;  747.642
389.933;  -11.671;   -5.804;  695.370
390.527;  -11.936;   -6.854;  859.029
391.120;  -18.081;   -7.665;  595.318
391.714;  -14.957;   -7.245;  711.633
392.308;  -12.184;   -4.514;  780.253
392.901;  -15.680;   -7.935;  642.460
393.495;  -17.342;   -8.585;  595.414
394.089;  -15.691;   -5.245;  760.452
394.682;  -16.336;   -6.305;  697.188
395.275;  -17.048;   -9.335;  719.927
395.869;  -18.264;   -7.375;  667.314
396.462;  -16.739;   -7.055;  616.609
397.056;  -12.621;   -5.434;  776.621
397.649;  -16.786;   -9.525;  731.575
398.242;  -13.565;   -7.574;  712.645
398.836;  -13.796;   -5.134;  766.408
399.429;  -14.744;   -6.544;  631.041
400.022;  -18.714;   -9.215;  665.902
400.615;  -15.011;   -8.105;  805.609
401.208;  -13.786;   -7.614;  691.451
401.802;  -15.581;   -8.085;  699.329
402.395;  -17.571;   -9.575;  683.502
402.988;  -18.623;   -9.285;  696.627
403.581;  -15.074;   -7.514;  646.878
404.174;  -12.893;   -6.404;  686.568
404.767;  -15.589;   -8.775;  638.583
405.360;  -18.407;   -7.415;  621.445
405.953;  -12.607;   -5.624;  759.034
406.545;  -12.301;   -6.474;  725.342
407.138;  -16.639;   -8.445;  618.350
407.731;  -14.956;  -10.044;  613.303
408.324;  -10.768;   -8.484;  660.554
408.917;  -12.355;   -7.624;  681.864
409.509;  -13.706;   -8.304;  740.396
410.102;  -16.225;   -8.495;  643.948
410.695;   -9.565;   -7.824;  665.758
411.287;  -11.321;   -7.754;  599.821
411.880;  -12.069;   -9.294;  585.421
412.472;  -14.921;   -8.814;  613.092
413.065;  -12.108;   -6.674;  629.408
413.657;  -10.268;   -9.664;  576.678
414.250;  -10.415;  -10.264;  646.681
414.842;  -11.737;   -8.664;  676.353
415.434;   -9.914;   -8.584;  570.463
416.027;   -5.562;   -9.423;  652.196
416.619;   -7.702;  -10.764;  713.400
417.211;   -8.108;   -7.404;  599.352
417.804;   -3.788;   -7.383;  628.499
418.396;   -8.851;   -8.334;  607.643
418.988;   -5.711;   -9.633;  659.238
419.580;   -9.464;  -10.554;  568.276
420.172;   -7.755;   -8.683;  536.196
420.764;   -3.046;   -9.713;  672.482
421.356;   -4.858;  -11.303;  636.898
421.948;   -5.340;   -8.453;  677.661
422.540;   -0.178;   -5.793;  680.027
423.132;   -1.465;   -7.162;  600.641
423.724;   -4.545;   -7.933;  561.267
424.316;   -2.238;   -9.083;  621.345
424.908;    0.743;   -8.392;  591.517
425.500;    2.123;   -8.062;  647.978
426.092;    2.667;   -9.692;  648.268
426.683;    1.115;   -8.223;  684.836
427.275;    4.010;   -8.602;  641.471
427.867;    5.724;   -8.382;  668.948
428.458;    5.873;  -10.472;  732.344
429.050;    4.131;   -9.112;  680.749
429.642;    7.360;   -7.752;  743.124
430.233;    6.993;   -8.832;  569.356
430.825;    8.800;   -8.292;  724.809
431.416;    5.946;   -7.522;  698.241
432.008;   10.097;   -9.262;  651.723
432.599;   10.188;   -6.441;  656.073
433.190;    7.121;   -9.222;  637.670
433.782;    6.255;  -11.832;  590.395
434.373;   15.049;   -7.121;  884.765
434.964;   12.048;   -9.141;  602.920
435.556;   10.383;   -9.332;  634.537
436.147;   13.154;   -8.892;  758.490
436.738;   13.165;   -8.151;  701.099
437.329;   17.828;   -8.281;  721.723
437.920;   11.323;   -9.062;  666.688
438.511;   11.051;  -11.182;  564.526
439.103;   17.329;   -7.461;  623.998
439.694;   19.146;   -8.541;  681.583
440.285;   20.430;   -7.351;  764.432
440.876;   18.567;   -8.201;  845.738
441.466;   18.040;  -10.381;  575.162
442.057;   22.800;   -7.620;  665.814
442.648;   22.214;   -8.461;  746.255
443.239;   19.421;   -8.991;  620.477
443.830;   24.808;   -7.910;  704.958
444.421;   26.687;   -7.340;  655.474
445.011;   23.019;   -8.981;  693.619
445.602;   22.672;   -9.341;  743.126
446.193;   25.386;  -11.390;  488.117
446.783;   29.639;  -11.240;  640.397
447.374;   24.443;   -8.471;  692.759
447.964;   24.843;   -8.471;  713.770
448.555;   34.037;   -6.590;  822.742
449.145;   30.258;   -8.200;  662.853
449.736;   30.812;  -11.040;  803.179
450.326;   31.074;   -9.640;  713.626
450.917;   35.110;   -9.480;  675.324
451.507;   34.976;   -8.020;  600.661
452.097;   35.288;  -10.210;  746.267
452.688;   36.486;   -7.810;  742.160
453.278;   36.891;   -9.360;  566.840
453.868;   41.355;   -8.669;  793.550
454.458;   38.389;  -10.950;  651.141
455.048;   38.986;  -10.200;  711.783
455.639;   39.764;   -9.369;  567.096
456.229;   43.205;   -7.739;  710.694
456.819;   45.847;   -8.939;  751.158
457.409;   46.023;   -7.169;  773.993
457.999;   48.725;   -7.779;  737.505
458.589;   48.828;   -7.039;  686.606
459.179;   47.873;   -9.019;  717.658
459.769;   46.577;   -8.909;  627.099
460.358;   50.778;   -8.659;  797.262
460.948;   51.152;   -8.209;  689.503
461.538;   53.083;   -9.879;  660.677
462.128;   50.652;   -9.379;  664.934
462.717;   57.475;   -9.158;  710.326
463.307;   61.034;   -8.638;  705.846
463.897;   55.495;   -8.869;  656.942
464.486;   55.506;   -7.409;  837.128
465.076;   60.055;   -9.618;  733.776
465.666;   62.858;   -7.578;  652.900
466.255;   61.238;   -9.369;  785.651
466.845;   60.393;  -10.049;  666.749
467.434;   63.951;   -8.168;  725.873
468.023;   63.524;   -9.188;  658.357
468.613;   61.859;   -9.849;  713.946
469.202;   66.141;  -12.958;  646.507
469.791;   70.690;   -9.488;  737.811
470.381;   71.953;   -6.468;  742.813
470.970;   71.619;  -10.248;  711.099
471.559;   71.949;  -11.428;  733.291
472.148;   74.721;   -9.738;  675.737
472.738;   77.054;   -7.877;  765.466
473.327;   77.174;  -11.868;  637.529
473.916;   76.166;   -8.578;  737.446
474.505;   79.526;  -11.137;  751.703
475.094;   82.699;   -9.407;  806.570
475.683;   82.731;   -9.977;  797.699
476.272;   83.642;  -10.807;  730.632
476.861;   85.754;  -11.017;  706.754
477.449;   92.234;  -10.316;  728.487
478.038;   87.397;  -10.187;  692.513
478.627;   88.647;  -12.458;  714.852
479.216;   95.420;  -10.127;  769.441
479.805;   98.196;   -6.256;  783.375
480.393;   97.617;   -8.737; 1008.945
480.982;   95.439;   -9.087;  874.501
481.571;  102.531;   -7.806;  858.333
482.159;  102.610;  -10.596;  705.386
482.748;  101.782;  -11.507;  821.385
483.336;  106.925;   -8.366;  858.209
483.925;  107.436;   -7.497;  774.373
484.513;  113.853;   -8.326;  758.962
485.102;  110.376;  -10.277;  810.965
485.690;  119.711;   -8.256; 1011.050
486.278;  120.832;   -7.146;  979.329
486.867;  120.178;   -7.986;  809.662
487.455;  123.468;   -9.926;  898.229
488.043;  124.294;  -10.026;  748.361
488.631;  133.786;   -7.226; 1005.079
489.220;  137.054;   -8.696;  908.626
489.808;  136.445;  -12.276;  741.415
490.396;  144.882;   -9.386;  914.645
490.984;  149.495;   -8.506;  830.161
491.572;  159.743;   -8.226;  940.315
492.160;  164.714;   -9.836;  919.081
492.748;  175.435;  -10.316;  884.341
493.336;  194.544;   -7.146; 1019.693
493.924;  217.981;   -7.965;  958.077
494.512;  246.924;  -10.316; 1066.638
495.100;  280.865;  -10.186; 1103.280
495.687;  336.408;   -7.805; 1206.373
496.275;  395.882;   -9.686; 1150.796
496.863;  480.492;  -11.566; 1281.171
497.451;  563.463;  -11.406; 1386.805
498.038;  665.053;   -8.235; 1556.729
498.626;  786.015;   -7.485; 1741.407
499.214;  946.143;   -8.646; 2016.609
499.801; 1196.348;   -9.936; 2220.633
500.389; 1409.396;   -8.056; 2312.494
500.976; 1554.910;   -6.166; 2744.849
501.564; 1738.106;   -9.126; 3148.565
502.151; 2015.306;  -12.456; 3515.999
502.738; 2397.934;  -10.056; 3971.274
503.326; 2810.819;  -10.605; 4403.796
503.913; 3191.134;  -10.576; 5161.749
504.500; 3646.010;   -9.056; 5986.420
505.088; 4155.278;  -10.136; 6381.201
505.675; 4816.880;   -9.075; 6925.547
506.262; 5258.803;  -11.346; 7619.060
506.849; 6101.452;   -9.376; 8733.969
507.436; 6857.825;   -7.365; 9790.121
508.023; 6832.084;   -8.686; 9985.472
508.610; 7006.352;   -8.846;10434.618
509.197; 7758.944;   -9.077;11198.435
509.784; 9173.446;  -10.246;12391.194
510.371;10411.694;   -9.825;13603.713
510.958;11466.276;  -10.896;14426.586
511.545;12123.356;   -9.006;15243.775
512.132;11914.456;   -8.765;15945.876
512.719;12377.088;   -8.286;16340.369
513.305;14336.183;   -9.256;18011.766
513.892;16388.861;  -11.106;19754.971
514.479;19291.098;   -8.576;20967.805
515.066;22117.010;   -9.046;22299.793
515.652;22910.570;  -10.676;22908.660
516.239;23485.752;  -10.166;23798.875
516.825;22928.957;  -11.266;25567.275
517.412;22219.982;   -7.446;28154.959
517.998;21784.480;  -10.916;28344.111
518.585;21363.570;   -9.166;27134.219
519.171;20678.979;  -10.135;27268.576
519.758;21637.609;   -8.806;28964.129
520.344;24405.725;   -6.716;30664.494
520.930;26983.611;  -10.166;32550.605
521.516;27097.873;   -9.615;35422.895
522.103;29285.342;   -8.656;38280.004
522.689;30026.082;   -9.646;37835.117
523.275;29083.684;  -10.786;37288.613
523.861;30993.090;   -9.266;37281.395
524.447;31461.449;   -8.285;37846.949
525.033;30260.795;   -9.426;38321.949
525.619;29263.734;   -9.836;38579.285
526.205;30035.137;   -8.136;40622.875
526.791;31488.389;   -9.986;42258.836
527.377;34225.594;   -8.236;42966.902
527.963;35509.563;  -12.117;42018.949
528.549;34691.684;   -8.376;42476.828
529.135;35831.863;   -8.696;41854.852
529.721;38203.816;   -9.686;41237.711
530.306;40505.164;   -8.616;41259.445
530.892;43011.238;   -9.396;41506.047
531.478;43942.465;   -9.926;43559.613
532.063;44115.906;  -10.236;47695.563
532.649;45027.672;   -8.257;50808.324
533.235;46004.016;  -11.476;51787.500
533.820;45941.348;   -8.156;52145.035
534.406;46926.695;  -12.257;51133.488
534.991;43880.172;   -8.686;49996.805
535.576;41025.973;   -9.426;48882.852
536.162;40626.605;   -8.436;46942.285
536.747;40995.430;  -10.957;45711.746
537.333;40298.824;  -13.147;48510.180
537.918;41733.957;   -9.027;50439.891
538.503;43339.473;   -8.256;50863.711
539.088;43205.691;  -10.576;50906.922
539.673;42441.199;  -10.907;52621.965
540.259;41359.520;   -9.126;52368.094
540.844;39827.133;   -9.026;50879.109
541.429;41296.828;   -9.597;52077.777
542.014;46620.438;  -11.447;52716.695
542.599;50438.629;   -9.236;52363.281
543.184;51915.137;  -12.267;53187.137
543.769;53817.203;  -10.367;54697.605
544.354;54204.352;  -10.887;53913.914
544.938;48139.445;  -11.687;49680.164
545.523;43653.102;   -8.286;47386.277
546.108;44424.160;   -9.317;49151.949
546.693;45421.766;  -10.187;51384.637
547.278;43318.590;   -9.926;51853.254
547.862;42419.488;   -9.196;51173.750
548.447;41897.797;   -9.657;51691.395
549.031;43601.969;   -9.127;52456.703
549.616;46134.035;  -10.836;52714.516
550.201;47060.395;   -8.507;52414.598
550.785;47779.004;  -10.537;52355.059
551.370;51009.918;  -11.727;54589.453
551.954;50279.418;   -9.457;58267.348
552.538;48539.816;   -8.147;59062.176
553.123;48153.969;   -9.397;58115.285
553.707;49645.277;   -9.558;56556.285
554.291;49080.738;   -9.417;56201.668
554.876;50975.164;   -7.627;55335.762
555.460;49306.844;  -10.457;54155.703
556.044;44615.996;  -10.078;53721.484
556.628;43777.293;   -9.407;53731.016
557.212;42801.285;   -7.957;54312.531
557.796;42152.770;  -11.327;53797.773
558.380;46187.512;  -10.868;56145.984
558.964;46391.875;   -9.637;57277.930
559.548;44577.391;   -8.807;56459.641
560.132;46789.020;  -10.187;54434.543
560.716;47529.734;   -9.868;54800.617
561.300;49004.578;  -10.217;57606.945
561.884;49185.824;   -4.947;58972.445
562.467;46448.090;   -9.588;57327.570
563.051;42133.691;  -11.138;54962.434
563.635;42486.770;   -9.358;52594.473
564.219;43141.910;   -9.797;50610.410
564.802;41782.168;   -9.918;49551.180
565.386;40817.297;  -10.838;48370.953
565.969;40239.516;   -8.037;48178.871
566.553;39032.711;   -5.667;49957.305
567.136;39007.688;   -8.258;50369.594
567.720;39531.988;  -11.278;49492.004
568.303;37572.777;   -9.028;50616.352
568.887;36069.551;   -7.508;50727.148
569.470;35067.949;  -11.068;51698.379
570.053;37112.766;  -10.028;52122.078
570.637;37352.051;  -11.077;52536.438
571.220;38848.855;   -8.747;51186.098
571.803;41235.246;   -8.868;51032.762
572.386;42449.188;  -10.608;49609.887
572.969;41747.090;  -10.548;48285.926
573.552;39249.031;   -7.898;47624.285
574.135;38580.152;   -9.918;45498.641
574.718;34227.227;  -10.328;41970.434
575.301;31600.055;   -9.548;41447.137
575.884;28972.883;   -8.768;40923.836
576.467;34269.605;   -9.858;45267.723
577.050;35096.434;  -11.018;48175.543
577.633;36577.695;  -10.048;47729.328
578.216;35639.227;  -10.268;47579.793
578.799;33566.250;  -11.808;47820.996
579.381;32682.990;   -7.338;48115.551
579.964;34452.598;   -9.728;47333.766
580.547;34910.855;   -8.928;46668.969
581.129;34727.707;   -9.149;44466.141
581.712;36267.738;  -11.359;44164.922
582.294;36237.570;  -10.738;46477.855
582.877;34336.180;   -8.788;48244.254
583.459;33300.496;   -9.859;47437.895
584.042;34364.773;   -9.649;46943.219
584.624;34791.906;  -10.529;46792.227
585.206;33275.684;  -10.298;46557.250
585.789;31475.465;  -11.029;45793.773
586.371;31593.719;   -9.359;43836.391
586.953;32277.303;   -8.799;42972.492
587.536;32309.904;   -8.928;42487.211
588.118;31706.949;   -9.180;42086.414
588.700;30170.557;  -10.519;43389.930
589.282;29210.412;   -8.098;43646.039
589.864;29270.064;   -8.139;43438.109
590.446;30827.850;  -10.509;43151.926
591.028;33597.063;  -11.119;42781.867
591.610;34468.922;  -10.019;42839.098
592.192;32855.504;   -8.838;42820.402
592.774;30582.049;  -11.549;40724.277
593.356;28256.404;  -11.609;39874.789
593.937;28753.297;  -10.019;39980.648
594.519;31419.725;   -7.839;42069.633
595.101;32697.277;  -10.779;42976.031
595.683;33874.578;  -10.049;44084.441
596.264;33988.449;   -9.969;43478.797
596.846;32615.643;   -9.699;43803.672
597.427;31819.326;  -10.970;42986.934
598.009;32825.184;  -13.090;42832.219
598.591;33061.793;   -9.509;42580.086
599.172;31370.127;   -9.019;43061.805
599.753;28948.311;  -13.310;41691.469
600.335;29176.551;  -11.010;40692.520
600.916;29962.109;  -10.309;39982.422
601.498;30178.414;   -8.209;40318.617
602.079;30259.963;  -11.440;40670.609
602.660;31585.578;   -8.690;41450.898
603.241;33010.238;  -12.759;41137.738
603.823;31338.672;  -10.409;38868.797
604.404;31302.721;  -11.790;38182.785
604.985;29823.283;  -10.280;38078.047
605.566;30435.275;   -8.059;38056.633
606.147;30898.658;   -8.960;37020.418
606.728;30687.984;  -10.710;37883.359
607.309;29857.906;  -12.760;38748.273
607.890;27803.828;   -9.959;38850.230
608.471;26248.844;   -9.780;37457.918
609.051;27986.760;   -8.940;36066.457
609.632;30804.961;  -12.070;35991.074
610.213;32777.113;   -9.610;37402.641
610.794;32967.332;   -8.750;38383.363
611.374;31931.822;  -11.100;40562.387
611.955;32327.479;  -12.200;38533.727
612.536;32083.936;  -10.410;36951.789
613.116;32143.279;  -10.010;37197.891
613.697;31289.072;  -10.480;38411.125
614.277;29769.420;  -12.751;38673.938
614.858;29734.955;  -11.600;37075.863
615.438;29230.721;   -8.190;35092.906
616.019;27809.746;   -8.941;33666.301
616.599;28879.859;  -13.540;34189.023
617.179;29405.689;  -10.890;36952.047
617.760;30031.572;   -7.610;39582.574
618.340;29428.346;  -14.441;38943.977
618.920;28801.199;   -9.180;37594.156
619.500;28875.275;  -11.881;37866.938
620.080;30865.512;   -9.870;37869.043
620.660;30904.066;  -13.211;36868.617
621.241;29804.309;  -11.921;36352.309
621.821;28685.869;  -10.271;35459.520
622.401;28400.846;   -8.200;35207.414
622.980;29402.443;  -11.141;35980.422
623.560;30890.912;  -14.321;37351.328
624.140;30549.719;   -9.360;34388.582
624.720;27082.023;   -7.481;32368.764
625.300;23912.656;  -12.730;32638.629
625.880;28732.240;  -11.441;34599.035
626.459;32382.775;  -10.971;36831.738
627.039;33954.211;   -9.011;38299.098
627.619;33758.012;   -8.521;38289.574
628.198;34695.855;   -9.861;37220.695
628.778;34393.180;   -8.841;37632.563
629.357;33057.207;   -9.891;38003.012
629.937;30820.158;  -11.871;38402.039
630.516;29716.189;  -10.641;37868.801
631.096;31987.428;  -11.391;35760.410
631.675;33516.164;   -6.622;35225.219
632.254;31414.443;  -13.002;35130.289
632.834;29818.426;  -11.622;35794.570
633.413;31665.893;   -8.321;35788.922
633.992;29941.059;   -7.732;34532.863
634.571;29403.773;  -10.992;33590.113
635.151;30825.623;  -10.422;34943.863
635.730;31183.258;  -11.511;35352.523
636.309;30315.439;   -7.901;35366.605
636.888;29442.586;  -11.452;36165.637
637.467;29118.887;  -10.672;37515.902
638.046;29166.246;   -9.301;39288.695
638.625;30186.998;  -11.452;38279.699
639.204;31610.773;  -12.262;37741.598
639.782;31145.510;  -11.892;38364.551
640.361;29864.570;  -11.411;36740.621
640.940;26777.328;  -11.501;34950.082
641.519;27093.371;  -10.921;34137.398
642.097;30279.369;  -10.101;35654.258
642.676;30754.318;  -10.821;35637.957
643.255;33138.699;   -8.631;36567.074
643.833;35299.773;  -11.411;37809.434
644.412;36387.227;  -12.021;37337.293
644.990;36114.426;  -12.271;37018.531
645.569;35169.406;   -9.741;36518.469
646.147;33932.910;   -9.051;36186.430
646.726;32135.068;  -13.861;36267.688
647.304;32137.547;   -9.461;36647.625
647.882;31195.311;  -13.171;39286.742
648.461;31254.680;  -11.911;39157.703
649.039;31617.893;   -9.541;35412.883
649.617;33397.344;   -8.901;34744.918
650.195;31552.420;   -8.591;35403.098
650.773;30039.260;  -13.031;35053.797
651.352;28523.914;  -12.211;33756.816
651.930;25571.104;  -11.361;31868.773
652.508;22997.014;   -8.601;33121.551
653.086;26599.691;   -9.991;33564.793
653.663;30891.246;  -11.931;34054.668
654.241;32644.742;  -10.821;35693.309
654.819;33134.277;   -9.341;36422.906
655.397;30998.824;  -10.851;38213.484
655.975;29381.963;  -11.461;39507.625
656.553;30041.289;   -8.841;39498.223
657.130;29542.344;  -10.371;40395.480
657.708;28453.010;  -11.071;39242.020
658.286;28381.836;  -11.141;38920.020
658.863;30856.475;  -10.861;40202.898
659.441;36430.000;  -11.181;39677.938
660.018;37834.113;  -10.851;40413.355
660.596;36734.227;  -12.571;39931.414
661.173;37358.105;  -12.141;39604.531
661.750;34082.340;  -11.571;39700.070
662.328;30849.057;  -10.780;39292.809
662.905;29668.633;  -10.750;38235.648
663.482;26862.049;  -11.320;36212.305
664.060;25893.627;  -10.160;35944.945
664.637;31499.283;  -13.120;35170.785
665.214;34042.504;  -11.500;34197.523
665.791;31919.654;  -12.430;34549.520
666.368;29504.766;   -9.840;35118.578
666.945;28372.316;  -11.290;36019.418
667.522;28697.158;  -13.540;36048.438
668.099;29507.568;  -10.250;36243.914
668.676;28590.531;  -11.270;35958.875
669.253;27964.309;   -8.210;37384.730
669.830;26666.803;   -9.710;36779.629
670.407;26169.377;   -9.700;35231.289
670.984;25977.482;   -9.190;35544.270
671.560;24799.453;   -9.560;35466.867
672.137;24590.270;  -11.820;34280.863
672.714;27488.711;  -12.460;34632.863
673.290;31684.318;  -10.940;35135.422
673.867;32895.270;  -10.510;36114.480
674.443;31026.969;  -12.110;36152.859
675.020;31040.219;  -11.760;35327.238
675.596;31693.930;   -9.380;35795.176
676.173;30965.818;  -11.120;35430.355
676.749;30024.887;  -13.390;33549.516
677.326;28907.025;  -12.600;32210.012
677.902;27961.252;  -10.830;32068.871
678.478;27348.123;  -12.400;32583.891
679.054;28701.105;   -8.610;32088.928
679.631;30089.887;  -11.640;30978.848
680.207;30809.143;   -8.140;33160.887
680.783;30579.689;  -12.300;35570.363
681.359;29235.639;  -10.910;36125.184
681.935;28427.715;  -11.040;35240.922
682.511;28847.695;  -11.130;34429.961
683.087;29047.789;  -11.080;34463.680
683.663;30802.238;  -10.530;34648.898
684.239;31217.738;  -12.120;34546.457
684.815;30064.549;   -8.870;35586.375
685.390;28653.707;   -8.940;35821.895
685.966;27600.314;  -12.109;35085.871
686.542;26339.408;  -13.539;34198.230
687.118;25619.662;  -10.379;32847.707
687.693;26487.018;  -10.189;32794.027
688.269;25887.588;  -12.939;33072.367
688.844;24723.932;   -8.679;33141.664
689.420;25604.988;  -10.919;33965.742
689.995;26161.859;   -7.489;34655.523
690.571;25551.877;  -12.199;33576.742
691.146;25829.098;   -8.979;32657.219
691.722;27408.158;   -9.119;32526.979
692.297;27463.068;  -10.519;33014.617
692.872;27447.496;  -10.629;34012.254
693.448;27695.209;  -12.119;34237.434
694.023;27027.146;   -8.219;34142.672
694.598;25273.295;  -13.209;34132.031
695.173;24030.205;  -11.879;34205.250
695.748;24558.266;  -12.039;32882.488
696.323;25564.434;  -11.779;32864.906
696.898;26023.949;  -10.219;33170.004
697.473;27506.959;  -13.639;32432.984
698.048;28289.094;  -11.239;31649.303
698.623;30323.154;  -10.859;30778.141
699.198;32300.168;  -13.379;31140.119
699.773;32625.732;  -13.409;31764.299
700.348;31602.078;  -12.329;31780.816
700.922;31498.742;   -8.749;32046.375
701.497;31463.873;  -12.449;32603.574
702.072;29857.576;   -8.879;34799.871
702.646;27939.303;  -10.719;35793.172
703.221;27358.584;   -8.469;35201.590
703.795;28168.205;  -11.389;34764.527
704.370;27136.271;  -12.499;34307.367
704.944;25755.670;  -11.449;33509.887
705.519;25683.154;  -10.659;31388.584
706.093;25035.236;  -12.909;31340.104
706.668;25421.516;  -13.509;32630.281
707.242;26397.693;  -10.049;32728.779
707.816;26286.129;  -10.629;32947.238
708.390;25439.809;  -11.829;33277.855
708.965;24122.297;  -11.159;33834.336
709.539;24418.303;  -11.069;33709.273
710.113;24122.531;  -10.908;33044.313
710.687;22341.787;   -9.488;31953.992
711.261;22649.283;  -13.068;30505.949
711.835;25237.881;  -12.748;30262.369
712.409;27452.660;  -10.678;31254.447
712.983;26969.148;  -11.658;32754.986
713.557;26383.563;  -13.718;34018.824
714.131;27101.270;  -13.388;34579.625
714.704;29692.756;   -9.818;33890.262
715.278;31680.020;  -11.818;33531.102
715.852;31784.707;  -11.328;33601.660
716.425;32138.703;   -9.118;33515.117
716.999;32203.934;  -10.188;33185.555
717.573;31301.570;   -9.808;33905.996
718.146;30339.957;  -11.478;35199.293
718.720;29101.465;  -10.998;35060.551
719.293;28143.094;   -9.508;34973.230
719.867;28907.881;  -12.138;36394.449
720.440;28385.391;  -11.288;36663.008
721.013;30571.744;  -11.428;35102.426
721.587;32335.738;  -11.698;33985.266
722.160;33882.262;  -11.608;33524.965
722.733;34160.426;  -11.428;32987.043
723.306;31000.217;  -12.518;33066.301
723.880;29496.455;   -7.408;33399.500
724.453;29272.117;  -11.048;33468.297
725.026;28093.047;  -11.678;33816.637
725.599;26671.326;  -10.978;32797.996
726.172;24985.254;   -8.838;33187.434
726.745;24828.654;  -11.438;35136.613
727.318;26341.301;   -9.828;35751.730
727.891;27075.631;  -10.868;35890.430
728.463;26967.982;  -11.348;34822.090
729.036;25807.303;  -11.608;32895.086
729.609;25468.881;  -14.738;31823.225
730.182;25817.311;   -8.448;31445.283
730.754;26614.857;  -11.228;32373.223
731.327;26886.201;  -12.018;33676.820
731.900;28706.604;  -13.748;33417.000
732.472;29774.248;  -10.928;31978.498
733.045;29286.844;   -9.478;30368.777
733.617;27484.041;  -12.967;30574.215
734.190;26808.234;  -11.707;31280.975
734.762;26171.736;  -11.067;31674.412
735.334;25129.051;  -10.587;31247.291
735.907;24056.168;  -11.947;29876.211
736.479;24517.855;  -11.667;29808.488
737.051;26190.969;  -10.187;30233.547
737.623;26890.938;   -6.887;31469.086
738.195;28233.209;  -12.117;31784.225
738.768;30320.555;  -14.077;32120.523
739.340;29738.033;  -12.207;32094.342
739.912;27307.033;   -8.977;31312.680
740.484;25844.918;  -11.017;31946.238
741.056;27760.357;  -13.517;32984.059
741.628;30267.145;  -11.507;33897.715
742.199;30727.971;   -7.597;33213.016
742.771;30271.902;  -12.227;31369.113
743.343;28881.301;  -12.427;31865.473
743.915;27039.518;   -9.827;32388.631
744.487;25898.783;  -10.007;31079.568
745.058;25012.668;  -11.887;30570.107
745.630;23942.859;  -10.787;29970.127
746.201;23464.441;  -10.887;29186.766
746.773;25013.777;   -9.707;28805.723
747.344;26162.535;  -11.137;29591.223
747.916;25551.346;  -11.887;31412.201
748.487;24849.436;   -9.707;32194.898
749.059;24348.766;  -10.027;32533.719
749.630;23648.758;  -11.787;32158.518
750.201;22377.572;  -12.767;30855.395
750.773;20532.801;  -11.497;28622.555
751.344;21385.232;   -9.937;28405.732
751.915;21344.816;  -11.567;28461.551
752.486;19281.537;  -13.267;27842.850
753.057;18214.348;  -10.627;27845.008
753.628;18211.494;  -11.657;27728.107
754.199;20481.936;  -12.097;27381.086
754.770;21919.514;  -11.447;25882.203
755.341;22248.840;  -11.997;25886.184
755.912;20653.623;  -10.207;26050.861
756.483;18869.830;  -10.937;26798.779
757.054;19312.324;  -11.527;27048.238
757.625;19609.203;  -12.886;26294.838
758.195;19180.918;  -11.226;26142.076
758.766;19576.400;  -12.366;26392.234
759.337;18444.938;  -11.946;26334.594
759.907;18040.086;  -13.856;27579.652
760.478;19367.072;   -9.606;28352.770
761.048;20873.330;  -11.606;27325.088
761.619;21439.455;  -11.036;26460.428
762.189;19810.807;  -12.206;26029.826
762.760;19014.201;   -9.666;26430.145
763.330;19997.369;   -9.796;26670.902
763.900;19828.793;  -10.896;26603.021
764.471;19327.049;  -11.726;25542.740
765.041;20053.051;   -9.656;24358.459
765.611;20492.924;  -11.276;23991.297
766.181;19968.930;  -12.116;24470.236
766.751;19757.699;  -12.376;24845.975
767.321;20069.965;  -11.626;24533.633
767.891;19869.018;  -10.426;24916.492
768.461;18193.221;  -13.456;24776.771
769.031;15757.175;  -11.616;24757.988
769.601;14796.434;  -11.356;24181.088
770.171;14792.504;  -11.586;23670.387
770.741;15417.889;  -12.696;22960.045
771.311;17094.143;  -10.226;22917.523
771.880;17744.604;  -11.146;23562.941
772.450;18125.326;  -11.716;24216.500
773.020;18038.566;  -13.226;24140.398
773.589;17000.082;  -12.586;24414.857
774.159;16602.002;  -10.246;23858.717
774.729;16007.194;  -11.586;22942.135
775.298;15819.374;  -15.926;22324.033
775.867;15765.458;  -10.426;21140.313
776.437;15330.387;  -11.416;20838.092
777.006;13535.565;  -12.766;20599.510
777.576;13538.384;  -13.666;20508.809
778.145;14914.457;  -10.066;20732.947
778.714;15153.909;  -10.276;21062.465
779.283;14603.277;  -12.086;20949.664
779.853;14371.556;  -14.016;20508.623
780.422;14217.423;  -12.376;20649.082
780.991;13577.813;   -9.246;21527.520
781.560;13319.319;   -9.775;22632.658
782.129;13637.643;  -12.495;23048.277
782.698;13706.639;  -11.775;23438.555
783.267;13616.789;  -10.065;23267.734
783.836;14472.515;  -12.455;22415.133
784.404;14951.038;  -13.385;20443.152
784.973;14847.006;  -11.045;19699.150
785.542;14407.285;   -9.505;19763.828
786.111;13697.150;   -9.385;20341.408
786.679;13458.068;  -13.475;20207.967
787.248;13410.721;  -11.245;19516.465
787.817;11979.957;  -12.485;18900.363
788.385;10509.944;  -11.165;17879.121
788.954;11030.293;  -11.755;17658.301
789.522;12028.888;   -9.625;17788.879
790.090;12374.600;   -9.665;18118.277
790.659;11714.840;   -9.295;18338.736
791.227;11691.543;  -12.175;18508.615
791.795;12489.161;  -12.145;17898.254
792.364;12477.806;  -11.575;17295.133
792.932;11879.749;  -11.085;16822.051
793.500;11472.947;  -11.345;17040.148
794.068;11108.325;  -12.565;17179.787
794.636;11697.381;  -12.105;16664.246
795.204;12759.675;  -11.995;16524.545
795.772;12706.345;  -12.615;17274.564
796.340;12141.354;  -12.425;17891.002
796.908;11714.456;  -11.455;17648.561
797.476;10871.207;  -12.165;17064.080
798.044; 9774.062;  -15.795;16672.777
798.612; 9305.090;  -10.985;17023.996
799.180; 9903.679;  -12.055;16561.615
799.747;10432.310;  -12.525;15962.773
800.315; 9633.009;  -14.765;15296.992
800.883; 8476.732;  -12.435;14801.771
801.450; 8370.186;  -11.295;14534.430
802.018; 8784.530;  -11.185;14173.248
802.585; 8932.181;  -11.625;14029.547
803.153; 8240.061;  -10.665;13836.846
803.720; 7750.581;  -10.275;13567.324
804.287; 7906.407;  -12.865;13360.622
804.855; 8169.522;  -12.324;13681.981
805.422; 8152.465;  -11.574;13536.560
805.989; 7825.141;  -11.004;13355.958
806.556; 8035.226;  -12.214;13747.896
807.124; 8415.032;  -13.304;13987.376
807.691; 8329.263;  -12.034;14038.674
808.258; 8141.702;  -11.014;14120.152
808.825; 8017.474;  -11.804;13860.111
809.392; 7783.076;  -11.544;13268.790
809.959; 7612.783;  -14.954;12680.389
810.526; 7901.663;  -10.214;12427.308
811.093; 7920.272;  -10.754;12030.105
811.659; 7500.614;  -12.194;11653.664
812.226; 6780.400;   -9.194;11637.183
812.793; 6633.944;   -9.644;11611.521
813.360; 7313.795;  -11.544;11885.181
813.926; 8289.959;  -12.814;12770.539
814.493; 8343.973;  -11.524;12677.638
815.060; 8102.985;  -12.254;11974.336
815.626; 7901.104;  -12.114;11594.715
816.193; 7370.482;  -11.994;11579.474
816.759; 6828.056;  -11.464;11666.972
817.325; 6387.095;  -10.444;11325.530
817.892; 6105.635;  -11.124;11105.369
818.458; 6132.804;  -11.864;10843.928
819.024; 6654.516;  -10.634;10714.406
819.591; 6852.926;  -10.554;10469.165
820.157; 6899.078;  -13.334;10235.523
820.723; 6929.791;  -13.044;10847.563
821.289; 6813.056;   -9.664;11040.980
821.855; 6907.830;  -10.994;10357.100
822.421; 7177.611;  -11.784; 9978.918
822.987; 7349.747;  -12.554; 9754.177
823.553; 7348.419;  -12.554;10065.755
824.119; 6965.486;   -8.544;10036.294
824.685; 6172.354;  -12.144;10029.192
825.251; 5830.080;  -12.754;10199.230
825.816; 5520.349;  -11.354; 9820.189
826.382; 5140.176;  -11.004; 9297.248
826.948; 5112.796;  -11.004; 9381.347
827.513; 5311.137;  -12.474; 9450.726
828.079; 5404.180;  -13.084; 9472.444
828.645; 5546.563;  -10.813; 9292.643
829.210; 5407.688;  -11.593; 9065.341
829.776; 5439.390;  -12.633; 9132.620
830.341; 5725.387;  -10.473; 9092.878
830.906; 5622.185;   -8.763; 9078.557
831.472; 4935.794;  -13.453; 8534.535
832.037; 4010.180;  -12.173; 8677.874
832.602; 3716.232;  -14.093; 8628.692
833.167; 4057.007;  -13.593; 8879.031
833.733; 4633.410;  -10.793; 9189.790
834.298; 4996.961;  -14.783; 9052.608
834.863; 4665.678;  -11.023; 8895.087
835.428; 4341.110;  -11.113; 8824.266
835.993; 4658.611;   -9.983; 8845.385
836.558; 4911.941;  -13.003; 8888.563
837.123; 4811.696;  -10.733; 8966.582
837.688; 4463.044;   -9.683; 8617.860
838.253; 4236.026;  -12.253; 8590.699
838.817; 4411.222;  -11.643; 8443.797
839.382; 4611.183;  -11.953; 8799.356
839.947; 4578.933;  -11.443; 8810.595
840.511; 4433.028;  -10.843; 8796.394
841.076; 4424.066;  -13.533; 8347.231
841.641; 4537.719;  -11.743; 8224.330
842.205; 4384.184;  -10.013; 8223.349
842.770; 4237.308;  -11.023; 8622.107
843.334; 4238.466;  -14.273; 8410.386
843.898; 4401.407;  -11.323; 8337.465
844.463; 4770.443;  -10.263; 8506.283
845.027; 4949.769;  -10.353; 8280.962
845.591; 4877.079;  -12.163; 8231.141
846.156; 4678.593;  -12.263; 7969.179
846.720; 4666.416;  -11.553; 7768.278
847.284; 4568.746;  -12.393; 7630.957
847.848; 3956.788;  -12.623; 7472.395
848.412; 3397.235;  -11.863; 7437.394
848.976; 3298.555;  -10.203; 7674.592
849.540; 3383.125;  -10.603; 7836.011
850.104; 3514.748;  -12.423; 7913.669
850.668; 3585.542;  -14.613; 7694.508
851.232; 3526.032;  -12.873; 7756.887
851.796; 3549.904;  -14.192; 7926.545
852.359; 3689.979;  -13.652; 7827.844
852.923; 3668.237;  -11.402; 7641.163
853.487; 3551.984;  -12.022; 7342.501
854.050; 3421.795;  -15.202; 7042.820
854.614; 3422.308;  -14.592; 7151.338
855.177; 3379.088;  -12.572; 7105.077
855.741; 3394.219;   -9.932; 6989.675
856.304; 3553.525;  -12.192; 6596.634
856.868; 3589.809;  -13.462; 6356.272
857.431; 3544.378;  -11.542; 6468.571
857.995; 3562.117;  -12.062; 6373.210
858.558; 3332.094;  -11.142; 6324.448
859.121; 3042.686;  -11.742; 6408.327
859.684; 2879.815;  -10.332; 6347.886
860.247; 2863.150;  -11.962; 6321.264
860.810; 2995.465;  -12.332; 6301.903
861.374; 3038.566;  -10.292; 6607.881
861.937; 2962.830;  -12.062; 6408.200
862.500; 3044.026;  -11.702; 6572.639
863.062; 3214.050;  -13.852; 6387.297
863.625; 3310.928;  -12.972; 6190.836
864.188; 3219.734;  -10.292; 5807.254
864.751; 3088.738;  -12.382; 5682.413
865.314; 2914.081;  -13.232; 5547.492
865.876; 2703.915;  -12.772; 5500.150
866.439; 2532.402;  -11.952; 5415.909
867.002; 2504.291;   -9.332; 5501.567
867.564; 2718.096;  -11.712; 5413.946
868.127; 2900.572;  -12.012; 5160.325
868.689; 2696.274;  -11.882; 5133.183
869.252; 2380.586;  -11.572; 5252.382
869.814; 2254.041;  -10.692; 5297.141
870.377; 2342.094;  -12.392; 5390.919
870.939; 2472.273;  -10.582; 5599.898
871.501; 2495.437;  -12.782; 5248.336
872.063; 2439.009;  -15.612; 4854.235
872.626; 2419.615;  -13.922; 4817.074
873.188; 2312.560;  -13.832; 4987.732
873.750; 2183.276;  -10.962; 4868.651
874.312; 2231.301;  -11.022; 4779.330
874.874; 2275.917;  -13.152; 4866.348
875.436; 2228.416;  -13.401; 4718.887
875.998; 2148.349;   -8.891; 4660.005
876.560; 2058.365;  -12.591; 4462.964
877.122; 2015.573;  -14.531; 4145.042
877.683; 2053.845;  -10.781; 4056.481
878.245; 2149.501;  -14.281; 3950.740
878.807; 2164.038;  -10.311; 4058.958
879.369; 1791.472;  -13.201; 3954.677
879.930; 1322.324;  -12.061; 3941.495
880.492; 1058.227;   -9.181; 4067.014
881.053; 1049.825;  -12.051; 3859.633
881.615; 1136.522;  -11.501; 3776.071
882.176; 1187.453;  -12.221; 3734.750
882.738; 1188.893;   -8.931; 3678.489
883.299; 1164.218;  -13.571; 3405.407
883.860; 1207.139;  -12.331; 3351.106
884.422; 1193.894;  -10.201; 3394.044
884.983; 1090.955;  -12.521; 3166.443
885.544; 1009.063;  -12.291; 3189.802
886.105;  992.489;  -12.991; 3160.360
886.666; 1003.680;  -12.901; 3093.059
887.227;  990.224;  -12.061; 2941.957
887.788;  950.467;  -11.641; 2974.836
888.349;  909.879;  -14.691; 2721.214
888.910;  868.852;   -9.681; 2696.493
889.471;  847.301;   -9.971; 2560.172
890.032;  833.630;  -13.151; 2558.190
890.593;  812.094;  -12.051; 2567.669
891.153;  785.666;  -12.841; 2460.307
891.714;  764.266;  -13.561; 2372.046
892.275;  749.221;  -12.401; 2309.505
892.835;  719.331;  -13.191; 2382.543
893.396;  676.471;  -12.551; 2295.502
893.956;  662.249;  -11.981; 2162.420
894.517;  665.093;  -12.221; 2125.439
895.077;  637.371;  -12.021; 2086.978
895.638;  572.975;  -10.891; 2126.316
896.198;  513.906;  -13.171; 1838.275
896.758;  474.933;  -11.891; 1892.813
897.319;  435.097;  -12.491; 1792.232
897.879;  414.103;  -12.401; 1762.751
898.439;  389.370;  -13.431; 1661.149
898.999;  370.684;  -11.340; 1781.468
899.559;  363.437;  -13.930; 1703.347
900.119;  348.332;  -13.730; 1537.525
900.679;  332.971;   -9.210; 1638.384
901.239;  318.758;  -10.860; 1527.902
901.799;  300.070;  -11.450; 1456.441
902.359;  279.964;  -13.800; 1357.140
902.919;  270.517;  -12.130; 1331.118
903.479;  267.637;  -12.650; 1317.257
904.038;  256.680;  -16.110; 1262.595
904.598;  239.517;  -13.690; 1152.034
905.158;  226.148;  -10.290; 1240.893
905.717;  218.328;  -10.670; 1233.691
906.277;  215.815;  -14.040; 1217.330
906.836;  216.783;  -13.510; 1222.408
907.396;  212.549;  -11.530; 1193.047
907.955;  201.544;  -13.190; 1182.526
908.515;  189.818;  -12.950; 1099.364
909.074;  181.485;  -12.390; 1092.863
909.633;  177.179;  -10.340; 1069.121
910.192;  175.011;  -11.170; 1196.460
910.752;  170.839;  -14.200; 1029.960
911.311;  167.939;  -13.810; 1009.780
911.870;  165.174;  -12.750;  971.460
912.429;  163.934;  -12.380; 1094.080
912.988;  160.865;  -11.930; 1081.060
913.547;  155.291;  -10.990;  940.380
914.106;  151.770;  -11.200;  999.420
914.665;  148.300;  -13.150;  984.020
915.224;  146.576;  -13.310; 1035.760
915.782;  144.600;  -13.340;  922.560
916.341;  144.370;  -10.710; 1049.840
916.900;  142.378;  -12.980;  925.260
917.458;  141.529;  -13.060;  884.220
918.017;  141.550;  -10.900;  942.600
918.576;  140.296;  -11.630;  904.440
919.134;  138.847;  -12.860;  837.980
919.693;  139.345;  -15.160;  893.060
920.251;  138.950;  -13.470;  876.500
920.809;  139.300;  -13.700;  839.580
921.368;  138.279;  -13.420;  885.360
921.926;  138.623;  -14.710;  842.940
922.484;  139.637;  -12.560;  903.360
923.042;  140.220;  -11.930;  880.340
923.601;  141.206;  -10.270;  998.680
924.159;  138.995;  -12.960;  935.560
924.717;  136.635;  -13.040;  841.080
925.275;  138.004;  -12.560;  903.240
925.833;  139.351;  -13.040;  779.320
926.391;  141.570;  -13.360;  938.380
926.949;  141.983;  -13.940;  857.680
927.506;  141.199;   -9.400;  903.500
928.064;  141.822;  -10.940;  877.580
928.622;  140.306;  -13.180;  880.100
929.180;  140.626;  -12.730;  814.180
929.737;  140.709;  -12.840;  808.540
930.295;  144.318;  -11.810;  928.480
930.853;  149.588;  -13.650;  849.100
931.410;  153.184;  -13.580;  821.120
931.968;  155.335;  -12.020;  940.660
932.525;  155.558;  -13.320;  909.380
933.082;  154.769;  -13.800;  811.440
933.640;  158.022;  -11.380;  925.900
934.197;  161.167;  -11.480;  886.360
934.754;  163.569;  -13.220;  897.780
935.312;  162.195;  -14.950;  863.340
935.869;  160.279;  -10.940; 1012.980
936.426;  154.764;  -12.100;  872.800
936.983;  154.409;  -12.930;  889.020
937.540;  155.254;  -14.250;  838.280
938.097;  160.782;  -12.600;  940.120
938.654;  167.495;  -11.260;  898.860
939.211;  170.345;  -13.020;  952.480
939.768;  172.238;  -15.760;  915.420
940.324;  175.422;  -13.920;  904.200
940.881;  173.725;  -11.620;  878.500
941.438;  171.873;   -9.870; 1021.200
941.995;  167.721;  -13.920;  992.560
942.551;  164.684;  -12.830;  875.620
943.108;  165.096;  -11.980;  937.920
943.664;  169.309;  -13.740;  869.340
944.221;  176.569;  -12.670; 1088.140
944.777;  177.122;  -13.250;  869.680
945.334;  173.523;  -13.000;  884.840
945.890;  171.289;  -13.020;  946.480
946.446;  169.959;  -13.880;  947.020
947.003;  170.546;  -12.660;  964.940
947.559;  172.209;   -8.730; 1063.040
948.115;  169.800;  -11.960; 1026.540
948.671;  165.503;  -12.360;  967.300
949.227;  160.788;  -12.700;  859.560
949.783;  157.733;  -13.450;  858.900
950.339;  156.208;  -10.620;  991.000
950.895;  154.260;  -14.770; 1023.840
951.451;  151.751;  -13.650;  925.280
952.007;  153.836;  -11.180;  998.540
952.563;  151.337;  -11.680;  937.780
953.118;  150.808;  -13.280;  904.940
953.674;  152.997;  -12.510;  935.780
954.230;  153.491;  -12.220;  949.640
954.785;  149.197;  -12.190;  936.640
955.341;  145.525;  -12.270;  998.160
955.897;  142.752;  -14.900;  834.660
956.452;  144.999;  -12.520;  953.840
957.008;  144.556;   -9.410; 1083.640
957.563;  141.366;  -11.280; 1009.540
958.118;  137.516;  -13.470;  877.700
958.674;  138.865;  -12.190;  946.780
959.229;  140.101;  -12.760; 1013.980
959.784;  143.286;  -15.710;  832.400
960.339;  148.763;  -12.540; 1001.280
960.894;  147.871;  -11.680;  963.760
961.449;  144.201;  -11.410;  859.960
962.004;  141.915;  -10.430; 1212.840
962.559;  135.839;  -14.040;  860.140
963.114;  130.258;  -14.270;  742.480
963.669;  130.780;  -11.320;  915.500
964.224;  131.164;  -14.620;  874.340
964.779;  129.559;  -14.150;  828.420
965.334;  129.787;  -10.850; 1017.860
965.888;  128.815;  -14.530;  875.360
966.443;  131.936;  -13.520;  972.380
966.998;  128.881;  -13.370;  819.460
967.552;  126.406;   -9.960;  908.380
968.107;  121.827;  -12.360;  868.300
968.661;  122.896;  -12.270;  922.440
969.216;  121.215;  -12.140;  856.280
969.770;  120.846;  -11.860;  917.200
970.324;  121.103;  -12.170;  923.140
970.879;  121.543;  -14.160;  947.180
971.433;  118.541;  -12.940;  952.720
971.987;  115.106;  -10.180;  895.340
972.541;  113.032;  -12.130;  917.100
973.095;  114.052;  -14.980; 1009.460
973.649;  112.655;  -14.480;  809.480
974.203;  114.682;  -13.530;  829.040
974.757;  117.220;  -12.060;  855.220
975.311;  114.141;  -13.240;  872.600
975.865;  113.131;  -12.550;  881.820
976.419;  111.465;  -13.180;  857.400
976.973;  110.729;  -14.100;  849.620
977.526;  110.155;  -13.330;  949.920
978.080;  105.413;  -15.390;  796.780
978.634;  105.435;  -11.670;  921.320
979.187;  102.236;  -10.640;  905.400
979.741;  101.429;  -13.330; 1018.380
980.294;   99.253;  -14.480;  789.160
980.848;   98.787;  -13.420;  717.220
981.401;   96.379;  -12.360;  816.540
981.955;   94.255;  -12.480;  844.300
982.508;   90.051;  -14.000;  746.340
983.061;   90.402;  -10.440;  915.260
983.615;   86.815;  -14.340;  798.800
984.168;   84.455;  -14.950;  770.080
984.721;   84.171;  -13.270;  880.760
985.274;   81.969;  -12.240;  867.500
985.827;   79.841;  -12.720;  834.220
986.380;   77.130;  -14.920;  721.340
986.933;   76.320;  -12.860;  864.800
987.486;   75.644;  -10.440;  861.920
988.039;   73.793;  -11.820;  863.100
988.591;   72.801;  -13.760;  893.260
989.144;   71.110;  -14.080;  737.260
989.697;   70.820;  -13.440;  758.740
990.250;   71.396;  -12.050;  858.100
990.802;   69.924;  -14.550;  755.860
991.355;   71.509;  -10.770;  974.880
991.907;   69.267;  -11.710;  864.320
992.460;   67.024;  -12.650;  753.760
993.012;   66.073;  -13.860;  749.540
993.565;   63.636;  -14.310;  711.360
994.117;   64.168;   -9.920;  950.780
994.669;   59.692;  -13.420;  701.320
995.221;   59.909;  -14.200;  791.920
995.774;   58.870;  -13.400;  787.580
996.326;   57.900;  -11.850;  740.220
996.878;   56.871;  -12.230;  838.420
997.430;   55.712;  -14.260;  699.860
997.982;   55.362;  -11.430;  750.140
998.534;   55.743;  -11.590;  739.060
999.086;   54.655;  -11.960;  738.220
999.638;   54.285;  -13.640;  661.380
1000.190;   53.137;  -13.660;  699.320
1000.741;   52.647;   -9.980;  742.700
1001.293;   51.194;  -11.860;  686.020
1001.845;   50.131;  -14.280;  676.640
1002.396;   51.029;  -12.270;  743.400
1002.948;   50.662;  -13.670;  737.400
1003.500;   49.099;  -12.010;  723.780
1004.051;   50.194;  -11.890;  907.580
1004.603;   48.882;  -11.220;  791.820
1005.154;   44.960;  -13.210;  608.980
1005.705;   44.028;  -11.850;  723.960
1006.257;   43.316;  -13.670;  707.220
1006.808;   42.953;  -12.060;  685.460
1007.359;   42.755;  -10.250;  763.240
1007.910;   40.972;  -13.440;  646.640
1008.461;   41.472;  -13.170;  732.940
1009.013;   39.938;  -14.590;  588.340
1009.564;   41.522;  -12.100;  793.520
1010.115;   38.712;  -14.000;  597.040
1010.665;   38.280;  -15.020;  602.160
1011.216;   39.273;  -12.560;  667.920
1011.767;   38.809;  -11.330;  697.920
1012.318;   39.178;  -11.450;  736.980
1012.869;   38.194;  -11.000;  679.000
1013.419;   37.527;  -11.760;  603.120
1013.970;   37.938;  -11.800;  666.640
1014.521;   36.328;  -14.750;  620.620
1015.071;   36.698;  -14.430;  670.380
1015.622;   36.476;  -14.170;  635.460
1016.172;   35.547;  -11.700;  596.820
1016.723;   36.026;  -13.230;  614.380
1017.273;   35.663;  -16.120;  604.160
1017.823;   35.458;  -13.360;  650.340
1018.374;   34.956;  -13.710;  611.760
1018.924;   34.741;  -11.050;  716.880
1019.474;   35.145;  -14.120;  718.880
1020.024;   33.910;  -12.990;  657.580
1020.574;   34.885;  -12.010;  726.160
1021.124;   35.273;  -12.080;  673.580
1021.674;   32.426;  -15.860;  559.120
1022.224;   34.500;  -11.710;  708.940
1022.774;   33.438;  -13.030;  668.820
1023.324;   33.831;  -11.000;  753.520
1023.874;   34.757;  -13.270;  875.760
1024.423;   32.466;  -14.570;  613.700
1024.973;   31.835;  -12.620;  610.760
1025.523;   30.846;  -12.630;  620.960
1026.072;   31.146;  -14.110;  606.420
1026.622;   30.856;  -15.390;  675.740
1027.172;   31.837;   -9.090;  715.660
1027.721;   30.228;  -12.250;  601.220
1028.270;   30.659;  -15.590;  663.400
1028.820;   30.582;  -13.840;  638.080
1029.369;   30.515;  -13.170;  612.700
1029.918;   30.391;  -14.080;  649.840
1030.468;   29.520;  -13.860;  564.780
1031.017;   30.214;  -12.970;  634.800
1031.566;   29.153;  -12.320;  608.900
1032.115;   29.390;  -13.140;  694.500
1032.664;   28.288;  -14.560;  596.480
1033.213;   29.732;  -11.620;  735.420
1033.762;   28.800;  -13.190;  635.620
1034.311;   28.535;  -13.460;  677.220
1034.860;   28.603;  -15.770;  691.000
1035.408;   28.551;  -13.100;  722.720
1035.957;   28.909;  -12.880;  719.540
1036.506;   26.726;  -13.640;  530.800
1037.055;   29.728;  -12.420;  844.320
1037.603;   27.595;  -13.740;  664.000
1038.152;   26.064;  -13.840;  534.760
1038.700;   26.153;  -10.770;  585.740
1039.249;   26.753;  -13.520;  681.220
1039.797;   26.574;  -13.060;  633.360
1040.345;   25.793;  -11.760;  705.420
1040.894;   25.745;  -10.790;  625.300
1041.442;   25.667;  -15.420;  632.200
1041.990;   24.898;  -14.550;  559.160
1042.538;   24.330;  -15.620;  536.180
1043.087;   23.847;  -14.940;  570.860
1043.635;   25.674;  -12.100;  670.500
1044.183;   25.098;  -13.200;  586.400
1044.731;   24.398;  -11.630;  576.000
1045.279;   24.427;  -14.200;  674.920
1045.827;   27.010;  -12.510;  892.400
1046.374;   23.215;  -14.960;  515.420
1046.922;   22.419;  -11.850;  590.580
1047.470;   24.329;  -13.770;  691.300
1048.018;   23.796;  -15.380;  647.960
1048.565;   25.209;  -14.010;  708.600
1049.113;   22.903;  -14.620;  557.000
1049.660;   23.806;  -14.940;  629.660
1050.208;   24.276;  -14.540;  675.640
1050.755;   22.587;  -13.710;  606.580
1051.303;   23.768;  -11.880;  686.820
1051.850;   21.784;  -12.160;  635.120
1052.397;   20.526;  -15.110;  473.960
1052.945;   21.678;  -14.770;  617.760
1053.492;   23.187;  -12.320;  741.840
1054.039;   22.697;  -13.290;  720.180
1054.586;   20.927;  -15.210;  557.240
1055.133;   22.506;  -12.920;  693.140
1055.680;   22.476;  -12.610;  646.620
1056.227;   20.426;  -12.620;  542.780
1056.774;   23.043;  -13.010;  794.980
1057.321;   21.217;  -16.180;  523.260
1057.868;   21.264;  -11.230;  651.320
1058.415;   20.593;  -10.890;  651.980
1058.961;   21.268;  -12.530;  678.940
1059.508;   21.223;  -14.120;  643.820
1060.055;   20.211;  -13.340;  581.780
1060.601;   21.178;  -12.920;  624.300
1061.148;   19.496;  -14.430;  616.820
1061.694;   19.832;  -14.140;  592.580
1062.241;   20.401;  -12.550;  596.320
1062.787;   20.032;  -13.370;  663.140
1063.334;   21.988;  -12.260;  808.560
1063.880;   20.170;  -10.800;  668.360
1064.426;   19.815;   -9.920;  706.820
1064.972;   18.442;  -12.970;  601.340
1065.518;   18.003;  -14.440;  566.640
1066.065;   19.807;  -12.680;  624.460
1066.611;   18.457;  -13.520;  598.800
1067.157;   18.623;  -11.100;  641.860
1067.703;   19.219;  -14.100;  668.480
1068.249;   18.461;  -13.750;  605.220
1068.794;   18.541;  -11.070;  626.880
1069.340;   17.073;  -13.210;  578.960
1069.886;   17.142;  -14.850;  590.700
1070.432;   17.168;  -14.580;  541.720
1070.977;   17.351;  -12.930;  601.080
1071.523;   17.193;  -11.970;  573.060
1072.068;   17.938;  -13.730;  582.000
1072.614;   17.440;  -14.550;  527.760
1073.160;   17.343;  -13.690;  687.040
1073.705;   16.085;  -14.780;  572.520
1074.250;   16.613;  -15.430;  559.900
1074.796;   17.624;  -11.620;  655.160
1075.341;   18.056;  -11.580;  664.100
1075.886;   16.431;  -13.190;  594.240
1076.431;   16.901;  -13.630;  649.880
1076.976;   16.706;  -11.670;  639.220
1077.521;   15.503;  -11.600;  583.080
1078.067;   15.158;  -13.920;  579.400
1078.612;   15.867;  -12.910;  661.620
1079.156;   15.766;  -15.340;  601.540
1079.701;   16.808;  -12.560;  693.260
1080.246;   16.190;  -12.490;  696.300
1080.791;   15.406;  -14.550;  625.020
1081.336;   15.662;  -15.210;  659.320
1081.880;   15.377;  -11.280;  649.680
1082.425;   14.901;  -12.830;  573.480
1082.970;   16.152;  -11.680;  717.040
1083.514;   14.931;  -15.500;  597.000
1084.059;   14.656;  -11.770;  586.720
1084.603;   14.149;  -13.480;  565.840
1085.147;   14.230;  -13.940;  645.220
1085.692;   15.405;  -13.170;  716.800
1086.236;   12.853;  -15.740;  503.140
1086.780;   15.179;  -10.750;  751.440
1087.325;   14.595;  -14.900;  654.620
1087.869;   14.362;  -15.160;  610.700
1088.413;   14.919;  -11.030;  705.040
1088.957;   12.318;  -15.210;  543.400
1089.501;   14.380;  -12.310;  766.640
1090.045;   14.681;  -12.790;  726.480
1090.589;   12.229;  -14.040;  569.920
1091.133;   12.885;  -12.800;  673.340
1091.676;   12.436;  -13.600;  591.940
1092.220;   12.827;  -12.960;  600.920
1092.764;   14.046;  -10.830;  706.960
1093.307;   12.912;  -12.390;  673.780
1093.851;   11.357;  -15.850;  556.540
1094.395;   12.831;  -12.980;  683.140
1094.938;   12.496;  -13.670;  632.520
1095.482;   12.044;  -12.740;  559.800
1096.025;   13.127;  -13.340;  710.880
1096.568;   13.575;  -10.500;  779.280
1097.112;   10.293;  -13.500;  508.180
1097.655;   12.191;  -13.060;  603.000
1098.198;   10.228;  -13.240;  600.180
1098.741;   10.569;  -15.490;  612.860
1099.285;   11.812;  -13.410;  657.300
1099.828;    9.323;  -15.640;  439.400
1100.371;   10.674;  -13.980;  608.160
1100.914;   11.303;  -13.990;  682.660
1101.457;   10.954;  -15.030;  679.900
1101.999;    9.716;  -12.480;  584.680
1102.542;   10.717;  -12.410;  641.440
1103.085;   10.735;  -14.730;  658.500
1103.628;   11.945;  -12.190;  762.060
1104.170;    9.290;  -12.360;  588.280
1104.713;   10.609;  -13.350;  646.700
1105.256;    9.600;  -14.930;  557.440
1105.798;    9.126;  -15.150;  499.980
1106.341;   11.155;  -13.230;  728.900
1106.883;    9.650;  -14.680;  521.340
1107.425;    9.719;  -14.810;  668.180
1107.968;    9.388;  -12.940;  612.380
1108.510;   10.221;  -10.550;  684.960
1109.052;    8.257;  -15.640;  612.620
1109.594;    8.366;  -14.440;  554.440
1110.136;    9.595;  -11.380;  643.220
1110.679;    8.480;  -13.090;  633.080
1111.221;    8.965;  -14.230;  604.460
1111.763;    8.481;  -14.260;  559.220
1112.304;    8.347;  -14.510;  547.140
1112.846;    8.447;  -14.700;  666.240
1113.388;   11.845;  -12.270;  942.180
1113.930;    8.948;  -13.340;  694.200
1114.472;    8.858;  -12.560;  606.540
1115.013;    7.029;  -14.280;  551.280
1115.555;    7.321;  -14.010;  587.100
1116.097;    6.731;  -14.730;  579.480
1116.638;    8.478;  -12.160;  684.600
1117.180;    8.331;  -14.320;  667.740
1117.721;    7.584;  -15.730;  568.580
1118.262;    8.422;  -13.480;  677.960
1118.804;    8.412;  -11.530;  637.340
1119.345;    7.293;  -13.540;  578.400
1119.886;    8.213;  -14.470;  704.040
1120.427;    7.571;  -13.030;  589.020
1120.969;    6.906;  -13.150;  597.920
1121.510;    5.778;  -13.940;  563.060
1122.051;    6.974;  -12.310;  723.580
1122.592;    6.215;  -13.870;  655.420
1123.133;    5.089;  -12.890;  547.940
1123.673;    6.902;  -13.300;  706.480
1124.214;    6.251;  -14.000;  612.460
1124.755;    7.338;  -13.210;  639.460
1125.296;    6.474;  -13.450;  627.320
1125.836;    6.657;  -12.610;  691.500
1126.377;    5.957;  -15.840;  599.660
1126.918;    6.322;  -11.830;  614.980
1127.458;    5.743;  -11.830;  622.220
1127.999;    6.495;  -11.490;  656.980
1128.539;    6.119;  -12.900;  694.240
1129.079;    5.284;  -14.910;  632.720
1129.620;    5.235;  -12.920;  558.100
1130.160;    4.052;  -14.640;  539.480
1130.700;    5.901;  -13.270;  640.840
1131.240;    5.623;  -14.110;  643.700
1131.781;    4.935;  -13.130;  619.680
1132.321;    4.409;  -15.220;  599.120
1132.861;    4.289;  -15.670;  564.200
1133.401;    4.067;  -13.970;  593.940
1133.941;    4.495;  -13.740;  626.280
1134.481;    4.471;  -13.200;  597.580
1135.020;    3.567;  -14.830;  609.160
1135.560;    4.462;  -14.590;  674.940
1136.100;    3.668;  -13.730;  501.160
1136.640;    3.353;  -15.240;  510.480
1137.179;    2.808;  -14.710;  537.960
1137.719;    3.596;  -14.090;  605.400
1138.258;    4.119;  -12.470;  587.360
1138.798;    4.508;  -12.580;  663.780
1139.337;    2.894;  -16.480;  482.840
1139.877;    3.832;  -13.970;  642.360
1140.416;    6.005;   -9.870;  878.060
1140.955;    2.371;  -14.860;  535.380
1141.494;    3.986;  -14.530;  669.280
1142.034;    2.175;  -13.940;  583.520
1142.573;    4.967;  -11.160;  646.280
1143.112;    3.520;  -15.050;  553.480
1143.651;    2.575;  -15.390;  536.480
1144.190;    4.014;  -12.990;  691.640
1144.729;    2.904;  -12.220;  607.420
1145.267;    2.984;  -14.020;  584.900
1145.806;    3.790;  -12.740;  637.040
1146.345;    2.456;  -14.810;  635.020
1146.884;    2.526;  -12.920;  622.500
1147.422;    1.655;  -13.930;  533.060
1147.961;    3.787;  -11.830;  708.460
1148.500;    3.420;  -12.710;  669.720
1149.038;    3.574;  -14.420;  632.500
1149.577;    2.894;  -13.920;  698.640
1150.115;    0.750;  -17.050;  452.280
1150.653;    2.490;  -14.890;  607.340
1151.192;    2.178;  -15.270;  552.920
1151.730;    2.313;  -13.160;  652.560
1152.268;    1.391;  -15.430;  589.520
1152.806;    2.195;  -15.880;  571.180
1153.344;    1.452;  -13.240;  577.640
1153.882;    1.376;  -13.010;  600.060
1154.421;    0.036;  -16.180;  470.620
1154.958;    1.054;  -13.880;  595.240
1155.496;    2.336;  -13.590;  645.280
1156.034;    1.627;  -11.910;  721.880
1156.572;    2.736;  -12.010;  667.060
1157.110;    0.267;  -16.250;  473.940
1157.647;    2.368;  -15.230;  676.960
1158.185;    0.244;  -13.770;  564.320
1158.723;   -0.078;  -15.300;  509.200
1159.260;    2.103;  -13.130;  701.700
1159.798;    2.205;  -11.300;  658.160
1160.335;    1.022;  -13.210;  631.820

