
Integration time [ms]:   3.276
Averaging Nr. [scans]: 1000
Smoothing Nr. [pixels]: 0
Data measured with spectrometer [name]: 7414430SP
Wave   ;Sample   ;Dark     ;Reference
[nm]   ;[counts] ;[counts] ;[counts] 

288.544;  160.267;    7.793;  793.890
289.143;  163.292;    7.462;  681.602
289.742;  165.009;    8.602;  828.814
290.341;  151.186;    1.321;  789.841
290.940;  140.709;   -0.709;  730.702
291.538;  142.471;    0.881;  881.108
292.137;  143.032;    0.122;  792.581
292.736;  144.588;   -1.929;  975.101
293.335;  140.951;   -8.229;  735.086
293.934;  142.135;   -5.279;  781.677
294.532;  143.672;   -1.369; 1031.958
295.131;  129.540;   -7.641;  834.394
295.730;  128.385;   -8.420;  809.588
296.328;  125.637;   -5.611;  783.442
296.927;  125.377;   -5.781;  779.652
297.525;  127.728;   -6.361;  781.236
298.124;  118.196;  -11.382;  654.009
298.722;  122.774;   -7.641;  761.933
299.321;  119.516;   -6.811;  708.597
299.919;  116.045;   -6.991;  751.918
300.518;  112.992;  -10.362;  689.338
301.116;  115.255;   -9.581;  691.381
301.715;  116.682;   -4.891;  730.222
302.313;  114.437;   -8.801;  704.943
302.911;  108.321;   -8.522;  733.830
303.509;  114.416;   -6.171;  925.627
304.108;  111.738;   -7.311;  760.383
304.706;  111.797;   -8.321;  801.664
305.304;  105.826;  -10.222;  796.707
305.902;  109.663;   -6.021;  784.484
306.500;  107.151;   -4.971;  728.200
307.098;  105.669;   -7.061;  746.560
307.696;  103.537;   -8.801;  780.432
308.294;  103.285;   -6.411;  731.359
308.892;  105.451;   -2.901;  759.769
309.490;  101.284;   -5.041;  712.161
310.088;   99.677;   -5.002;  788.444
310.686;  103.652;   -2.041;  821.749
311.284;  100.391;   -2.351;  766.040
311.882;   96.821;   -4.422;  731.225
312.480;   93.537;   -4.192;  697.167
313.078;   95.606;   -1.172;  808.331
313.675;   96.381;   -2.601;  691.600
314.273;   90.624;   -1.312;  797.837
314.871;   89.094;   -3.942;  589.829
315.468;   87.310;   -2.802;  652.090
316.066;   91.530;   -0.701;  694.427
316.664;   84.133;   -4.362;  656.351
317.261;   87.612;   -2.872;  910.128
317.859;   83.038;   -2.022;  768.735
318.456;   84.158;   -0.531;  830.096
319.054;   79.132;   -3.912;  787.828
319.651;   78.033;   -4.752;  759.928
320.249;   75.958;   -2.602;  810.188
320.846;   74.651;   -0.821;  714.286
321.443;   72.431;   -4.642;  832.135
322.041;   69.020;   -5.002;  812.315
322.638;   66.967;   -3.982;  701.456
323.235;   67.895;   -3.411;  665.683
323.833;   64.817;   -7.361;  740.354
324.430;   59.664;   -8.611;  615.900
325.027;   60.360;   -4.061;  876.855
325.624;   60.911;   -4.031;  644.532
326.221;   57.761;   -7.481;  689.717
326.818;   56.702;   -5.281;  818.332
327.415;   59.853;   -7.460;  748.828
328.012;   59.587;   -5.510;  690.585
328.609;   57.564;   -7.880;  731.389
329.206;   56.231;   -8.331;  778.621
329.803;   55.485;   -5.121;  737.841
330.400;   58.219;   -4.510;  704.260
330.997;   59.475;   -6.441;  817.147
331.594;   57.629;   -8.831;  788.185
332.191;   63.776;   -7.621;  728.722
332.787;   67.521;   -4.591;  844.463
333.384;   66.024;   -7.412;  763.093
333.981;   65.379;   -8.293;  815.687
334.578;   67.827;   -7.052;  708.378
335.174;   70.811;   -3.102;  731.469
335.771;   69.567;   -5.943;  836.456
336.367;   66.968;   -7.393;  710.631
336.964;   71.696;   -4.063;  793.266
337.561;   69.866;   -3.813;  731.112
338.157;   65.233;   -4.654;  911.916
338.754;   63.458;   -7.934;  796.589
339.350;   62.664;   -4.414;  722.493
339.946;   64.021;   -4.664;  773.135
340.543;   56.345;   -6.375;  846.136
341.139;   49.321;   -9.815;  720.836
341.735;   46.215;   -4.526;  772.593
342.332;   46.454;   -4.895;  691.472
342.928;   46.316;   -4.295;  795.394
343.524;   38.316;   -5.476;  761.684
344.120;   34.736;   -5.856;  738.562
344.716;   39.295;   -2.155;  723.717
345.313;   35.919;   -6.275;  795.342
345.909;   30.507;   -8.815;  627.336
346.505;   31.631;   -5.305;  740.247
347.101;   33.188;   -2.674;  827.864
347.697;   33.027;   -4.344;  785.398
348.293;   26.277;   -9.975;  627.244
348.889;   27.812;   -5.774;  745.914
349.485;   28.073;   -5.004;  688.205
350.081;   28.153;   -4.704;  772.592
350.676;   22.488;   -6.635;  691.606
351.272;   27.514;   -4.504;  809.530
351.868;   27.494;   -3.914;  780.497
352.464;   24.719;   -9.044;  723.932
353.059;   19.767;   -8.314;  646.017
353.655;   23.648;   -7.024;  777.063
354.251;   24.854;   -5.343;  759.845
354.846;   19.878;   -8.604;  740.646
355.442;   17.037;   -6.945;  753.071
356.038;   19.119;   -7.564;  751.708
356.633;   19.148;   -5.814;  728.594
357.229;   17.338;   -7.364;  724.757
357.824;   14.190;   -8.024;  703.600
358.420;   13.906;   -9.384;  679.726
359.015;   14.786;   -5.104;  695.357
359.610;   15.090;   -6.854;  763.920
360.206;    9.582;  -10.185;  603.240
360.801;   11.921;   -7.054;  646.503
361.396;   15.412;   -5.034;  725.975
361.992;    9.782;   -8.284;  668.220
362.587;    6.322;   -8.625;  670.160
363.182;    7.853;   -7.674;  689.631
363.777;    8.810;   -5.164;  738.242
364.372;    9.718;   -8.604;  737.314
364.967;    5.092;   -9.055;  680.744
365.563;    9.329;   -6.114;  815.567
366.158;    7.396;   -5.814;  685.161
366.753;    7.186;   -7.854;  649.263
367.348;    5.552;   -7.804;  746.056
367.942;    5.568;   -7.954;  697.298
368.537;    4.778;   -4.984;  754.245
369.132;    4.620;   -8.564;  703.428
369.727;    0.222;   -8.855;  638.079
370.322;    2.298;   -6.245;  580.186
370.917;    1.546;   -6.425;  710.646
371.511;    4.450;   -6.294;  861.834
372.106;    0.412;   -7.685;  776.964
372.701;   -3.051;   -7.335;  585.988
373.296;    2.832;   -4.564;  863.135
373.890;   -1.601;  -10.235;  647.840
374.485;   -4.457;   -7.885;  691.199
375.079;   -0.123;   -7.324;  738.685
375.674;    1.593;   -3.494;  812.970
376.268;   -3.313;   -8.525;  691.759
376.863;   -9.390;  -10.086;  580.327
377.457;   -2.172;   -7.025;  662.490
378.052;   -4.417;   -3.585;  764.884
378.646;   -5.797;   -7.595;  741.167
379.240;   -5.839;   -8.335;  721.176
379.835;   -5.535;   -5.785;  636.978
380.429;   -6.482;   -4.335;  562.557
381.023;   -6.468;   -6.805;  779.205
381.617;   -9.446;   -9.195;  680.106
382.212;   -6.755;   -6.905;  685.303
382.806;   -4.973;   -3.745;  760.690
383.400;   -8.860;   -7.745;  672.281
383.994;  -10.315;   -9.765;  664.870
384.588;   -6.516;   -6.564;  697.701
385.182;   -5.249;   -5.344;  726.624
385.776;   -6.753;   -8.514;  706.875
386.370;  -10.768;   -9.555;  681.968
386.964;   -8.909;   -8.715;  684.155
387.558;   -7.798;   -6.174;  598.360
388.152;  -10.867;   -8.725;  681.959
388.745;   -9.561;   -7.965;  814.707
389.339;   -8.288;   -5.924;  747.642
389.933;   -6.061;   -5.524;  695.370
390.527;   -7.945;   -7.114;  859.029
391.120;  -14.219;  -10.725;  595.318
391.714;  -11.370;   -8.035;  711.633
392.308;   -8.027;   -3.574;  780.253
392.901;  -11.556;   -7.245;  642.460
393.495;  -14.202;   -9.285;  595.414
394.089;  -11.758;   -5.895;  760.452
394.682;  -11.936;   -4.295;  697.188
395.275;  -12.370;   -9.875;  719.927
395.869;  -14.112;   -8.485;  667.314
396.462;  -12.838;   -7.455;  616.609
397.056;   -7.982;   -5.424;  776.621
397.649;  -13.438;   -6.605;  731.575
398.242;  -10.766;   -8.224;  712.645
398.836;  -10.563;   -7.474;  766.408
399.429;  -10.473;   -7.094;  631.041
400.022;  -14.712;   -9.475;  665.902
400.615;  -11.667;   -7.145;  805.609
401.208;  -10.558;   -7.174;  691.451
401.802;  -12.152;   -5.515;  699.329
402.395;  -13.771;   -9.875;  683.502
402.988;  -15.059;   -8.845;  696.627
403.581;  -11.926;   -8.874;  646.878
404.174;   -8.676;   -5.324;  686.568
404.767;  -11.694;   -9.575;  638.583
405.360;  -14.520;  -10.965;  621.445
405.953;   -9.255;   -8.764;  759.034
406.545;   -8.667;   -7.514;  725.342
407.138;  -12.732;  -10.025;  618.350
407.731;  -11.875;  -10.034;  613.303
408.324;   -7.465;   -9.374;  660.554
408.917;   -7.691;   -6.534;  681.864
409.509;   -9.873;   -8.004;  740.396
410.102;  -12.066;   -9.875;  643.948
410.695;   -5.998;   -8.604;  665.758
411.287;   -6.398;   -6.794;  599.821
411.880;   -8.418;   -9.334;  585.421
412.472;  -12.225;  -10.254;  613.092
413.065;   -9.307;   -6.714;  629.408
413.657;   -5.642;   -7.234;  576.678
414.250;   -6.754;  -10.544;  646.681
414.842;   -8.830;   -9.744;  676.353
415.434;   -6.510;   -6.994;  570.463
416.027;   -1.269;   -5.893;  652.196
416.619;   -4.139;   -7.264;  713.400
417.211;   -4.954;  -10.374;  599.352
417.804;   -0.292;   -7.993;  628.499
418.396;   -4.691;   -7.234;  607.643
418.988;   -2.032;   -9.443;  659.238
419.580;   -5.982;  -10.724;  568.276
420.172;   -4.818;  -10.323;  536.196
420.764;    0.847;   -8.793;  672.482
421.356;   -0.503;  -11.143;  636.898
421.948;   -2.106;   -8.293;  677.661
422.540;    3.560;   -7.893;  680.027
423.132;    2.865;   -7.082;  600.641
423.724;   -0.200;   -8.653;  561.267
424.316;    1.381;  -10.213;  621.345
424.908;    4.821;   -9.762;  591.517
425.500;    5.383;   -5.572;  647.978
426.092;    6.432;   -8.422;  648.268
426.683;    4.339;   -9.283;  684.836
427.275;    7.278;   -7.852;  641.471
427.867;    9.667;   -5.272;  668.948
428.458;   10.331;   -7.682;  732.344
429.050;    7.446;  -10.612;  680.749
429.642;   10.344;   -9.882;  743.124
430.233;   11.266;   -6.962;  569.356
430.825;   12.100;   -6.842;  724.809
431.416;    8.976;   -9.672;  698.241
432.008;   13.609;   -6.552;  651.723
432.599;   14.033;   -6.891;  656.073
433.190;   10.605;  -10.912;  637.670
433.782;    9.662;  -11.172;  590.395
434.373;   17.453;   -6.061;  884.765
434.964;   16.558;   -8.251;  602.920
435.556;   13.303;   -9.722;  634.537
436.147;   16.741;   -9.082;  758.490
436.738;   16.848;   -8.041;  701.099
437.329;   22.936;   -7.341;  721.723
437.920;   15.427;   -8.162;  666.688
438.511;   14.092;  -11.802;  564.526
439.103;   21.975;  -10.191;  623.998
439.694;   23.812;   -7.601;  681.583
440.285;   24.116;   -8.541;  764.432
440.876;   21.790;   -9.751;  845.738
441.466;   21.753;   -9.401;  575.162
442.057;   26.462;   -7.760;  665.814
442.648;   25.871;   -9.971;  746.255
443.239;   23.245;  -11.001;  620.477
443.830;   28.438;   -7.990;  704.958
444.421;   31.370;   -7.910;  655.474
445.011;   27.211;   -8.131;  693.619
445.602;   26.161;   -7.111;  743.126
446.193;   29.267;  -10.920;  488.117
446.783;   33.201;   -6.500;  640.397
447.374;   28.032;   -8.671;  692.759
447.964;   28.947;  -10.781;  713.770
448.555;   37.618;   -9.650;  822.742
449.145;   34.118;   -8.660;  662.853
449.736;   35.365;   -8.990;  803.179
450.326;   34.581;   -9.500;  713.626
450.917;   40.186;   -8.680;  675.324
451.507;   40.069;   -7.520;  600.661
452.097;   40.394;   -8.590;  746.267
452.688;   40.510;  -11.340;  742.160
453.278;   40.500;  -10.100;  566.840
453.868;   45.645;   -6.019;  793.550
454.458;   42.983;   -9.440;  651.141
455.048;   43.373;  -10.560;  711.783
455.639;   45.180;  -11.799;  567.096
456.229;   48.785;   -6.899;  710.694
456.819;   51.328;   -7.389;  751.158
457.409;   50.974;  -11.119;  773.993
457.999;   53.585;   -9.289;  737.505
458.589;   53.329;   -6.139;  686.606
459.179;   53.858;   -8.729;  717.658
459.769;   51.633;   -9.789;  627.099
460.358;   56.205;  -10.259;  797.262
460.948;   56.193;   -7.299;  689.503
461.538;   57.575;  -10.289;  660.677
462.128;   56.327;  -11.269;  664.934
462.717;   62.083;   -9.368;  710.326
463.307;   65.869;   -7.908;  705.846
463.897;   61.405;   -9.599;  656.942
464.486;   60.850;   -9.769;  837.128
465.076;   65.814;   -8.048;  733.776
465.666;   69.272;   -9.358;  652.900
466.255;   65.962;   -7.919;  785.651
466.845;   64.825;  -11.689;  666.749
467.434;   68.784;   -7.818;  725.873
468.023;   70.262;   -7.678;  658.357
468.613;   67.896;  -10.939;  713.946
469.202;   70.937;  -10.118;  646.507
469.791;   76.259;   -9.108;  737.811
470.381;   78.406;   -6.058;  742.813
470.970;   77.431;  -10.428;  711.099
471.559;   77.242;  -10.268;  733.291
472.148;   80.570;   -8.448;  675.737
472.738;   83.767;   -6.917;  765.466
473.327;   83.120;  -11.978;  637.529
473.916;   81.372;  -11.888;  737.446
474.505;   86.588;   -9.437;  751.703
475.094;   90.182;   -6.747;  806.570
475.683;   89.320;   -9.367;  797.699
476.272;   90.317;  -12.637;  730.632
476.861;   92.668;  -10.027;  706.754
477.449;   98.555;   -8.716;  728.487
478.038;   93.232;   -9.577;  692.513
478.627;   94.320;   -9.718;  714.852
479.216;  101.309;   -8.947;  769.441
479.805;  105.442;   -6.256;  783.375
480.393;  104.047;   -7.937; 1008.945
480.982;  102.758;   -7.717;  874.501
481.571;  109.880;   -9.266;  858.333
482.159;  110.911;   -7.636;  705.386
482.748;  110.456;   -9.667;  821.385
483.336;  115.550;  -10.376;  858.209
483.925;  115.885;   -7.147;  774.373
484.513;  123.290;   -7.996;  758.962
485.102;  119.745;  -10.027;  810.965
485.690;  128.175;  -10.446; 1011.050
486.278;  130.238;   -8.446;  979.329
486.867;  131.502;   -6.356;  809.662
487.455;  132.269;   -9.136;  898.229
488.043;  133.983;  -10.646;  748.361
488.631;  143.164;   -7.456; 1005.079
489.220;  147.511;   -6.636;  908.626
489.808;  147.265;  -11.036;  741.415
490.396;  155.327;  -10.246;  914.645
490.984;  161.977;   -8.556;  830.161
491.572;  172.914;   -5.886;  940.315
492.160;  179.595;   -9.486;  919.081
492.748;  193.219;  -10.976;  884.341
493.336;  216.070;   -8.776; 1019.693
493.924;  243.814;   -5.465;  958.077
494.512;  275.142;   -9.986; 1066.638
495.100;  319.841;  -10.636; 1103.280
495.687;  381.099;  -10.885; 1206.373
496.275;  440.909;   -8.126; 1150.796
496.863;  507.710;  -10.586; 1281.171
497.451;  618.487;  -11.926; 1386.805
498.038;  725.444;  -10.885; 1556.729
498.626;  834.465;   -6.315; 1741.407
499.214;  994.868;   -7.326; 2016.609
499.801; 1193.911;  -11.906; 2220.633
500.389; 1420.880;  -10.466; 2312.494
500.976; 1705.931;   -5.236; 2744.849
501.564; 2146.283;   -8.936; 3148.565
502.151; 2626.573;  -13.176; 3515.999
502.738; 3086.648;  -10.646; 3971.274
503.326; 3476.015;   -9.525; 4403.796
503.913; 3846.385;  -10.856; 5161.749
504.500; 4339.282;  -11.586; 5986.420
505.088; 4766.325;  -10.336; 6381.201
505.675; 5182.929;   -6.355; 6925.547
506.262; 5637.511;   -9.046; 7619.060
506.849; 6020.342;  -10.416; 8733.969
507.436; 6443.865;  -10.305; 9790.121
508.023; 6901.659;   -5.496; 9985.472
508.610; 7698.793;   -7.856;10434.618
509.197; 9348.398;  -10.097;11198.435
509.784;10886.346;  -10.886;12391.194
510.371;11909.672;   -9.315;13603.713
510.958;12689.251;   -9.936;14426.586
511.545;13103.547;   -9.326;15243.775
512.132;13948.060;  -10.075;15945.876
512.719;14396.110;   -7.796;16340.369
513.305;15567.888;  -10.606;18011.766
513.892;16851.391;  -11.486;19754.971
514.479;18562.816;   -9.126;20967.805
515.066;19848.662;   -6.026;22299.793
515.652;20282.129;   -8.466;22908.660
516.239;21558.760;  -10.886;23798.875
516.825;23459.105;  -11.496;25567.275
517.412;24614.570;   -5.796;28154.959
517.998;26092.971;  -10.506;28344.111
518.585;26354.941;  -10.076;27134.219
519.171;25542.043;   -8.315;27268.576
519.758;25174.314;   -8.596;28964.129
520.344;25891.949;   -8.466;30664.494
520.930;28944.705;  -11.006;32550.605
521.516;29341.521;  -10.495;35422.895
522.103;28471.422;   -5.526;38280.004
522.689;28806.828;   -8.746;37835.117
523.275;30016.584;  -11.376;37288.613
523.861;29977.535;  -11.156;37281.395
524.447;29787.766;   -8.135;37846.949
525.033;30725.080;   -7.896;38321.949
525.619;33938.531;  -12.476;38579.285
526.205;37326.906;   -9.516;40622.875
526.791;37992.559;   -6.926;42258.836
527.377;40389.395;   -8.346;42966.902
527.963;42370.453;   -8.717;42018.949
528.549;40758.520;  -11.016;42476.828
529.135;40413.211;   -8.536;41854.852
529.721;39495.023;   -9.666;41237.711
530.306;37604.398;  -10.066;41259.445
530.892;37696.551;  -11.356;41506.047
531.478;38171.887;   -6.596;43559.613
532.063;38624.391;   -8.836;47695.563
532.649;41736.102;  -10.047;50808.324
533.235;44068.523;   -9.746;51787.500
533.820;43416.832;   -6.566;52145.035
534.406;42230.008;  -10.817;51133.488
534.991;44673.734;   -9.416;49996.805
535.576;45681.969;   -9.036;48882.852
536.162;46180.840;   -6.156;46942.285
536.747;46182.012;  -11.607;45711.746
537.333;45786.633;  -11.787;48510.180
537.918;44609.734;  -12.437;50439.891
538.503;44187.504;   -7.196;50863.711
539.088;42732.297;  -10.556;50906.922
539.673;42764.438;   -8.767;52621.965
540.259;43378.836;  -10.026;52368.094
540.844;44055.227;   -7.416;50879.109
541.429;41268.574;   -9.467;52077.777
542.014;38940.770;   -9.527;52716.695
542.599;38441.289;   -9.946;52363.281
543.184;40074.809;   -7.927;53187.137
543.769;43069.180;   -9.297;54697.605
544.354;44602.734;  -10.127;53913.914
544.938;44233.145;   -9.267;49680.164
545.523;46708.328;   -6.506;47386.277
546.108;52169.426;   -9.787;49151.949
546.693;52574.594;  -11.587;51384.637
547.278;52451.086;  -10.986;51853.254
547.862;48320.820;   -8.206;51173.750
548.447;44988.559;  -10.067;51691.395
549.031;47398.594;   -9.637;52456.703
549.616;49802.641;   -9.926;52714.516
550.201;47187.844;   -6.347;52414.598
550.785;44648.117;   -7.917;52355.059
551.370;42765.648;  -10.867;54589.453
551.954;44008.566;   -9.047;58267.348
552.538;47065.473;   -7.827;59062.176
553.123;46919.027;  -10.287;58115.285
553.707;43182.348;  -12.178;56556.285
554.291;44733.750;   -8.717;56201.668
554.876;47341.957;   -7.457;55335.762
555.460;48952.609;  -10.387;54155.703
556.044;49355.039;   -9.618;53721.484
556.628;48868.758;  -11.567;53731.016
557.212;48114.004;   -8.097;54312.531
557.796;47975.730;  -11.077;53797.773
558.380;45912.867;  -11.108;56145.984
558.964;43663.141;   -9.057;57277.930
559.548;43530.109;   -6.977;56459.641
560.132;43925.414;  -11.457;54434.543
560.716;41904.453;  -11.378;54800.617
561.300;42833.242;   -9.577;57606.945
561.884;45258.641;   -7.127;58972.445
562.467;46039.695;   -7.118;57327.570
563.051;46377.832;  -13.358;54962.434
563.635;44986.695;  -10.178;52594.473
564.219;44963.301;   -7.837;50610.410
564.802;44283.438;  -11.398;49551.180
565.386;45474.105;  -12.788;48370.953
565.969;45228.344;   -9.077;48178.871
566.553;44392.230;   -6.207;49957.305
567.136;42233.480;   -8.568;50369.594
567.720;41551.168;  -11.868;49492.004
568.303;42528.195;   -8.268;50616.352
568.887;41557.266;   -8.698;50727.148
569.470;40505.676;   -6.808;51698.379
570.053;39068.422;  -13.188;52122.078
570.637;36836.930;  -12.037;52536.438
571.220;36248.547;   -8.577;51186.098
571.803;37672.656;   -8.498;51032.762
572.386;39651.484;  -10.498;49609.887
572.969;40828.820;   -9.388;48285.926
573.552;37027.336;   -8.338;47624.285
574.135;35646.586;   -8.518;45498.641
574.718;34312.363;  -13.628;41970.434
575.301;32850.887;  -10.893;41447.137
575.884;31389.408;   -8.158;40923.836
576.467;35336.828;  -10.328;45267.723
577.050;34717.328;  -13.058;48175.543
577.633;33415.641;   -9.458;47729.328
578.216;33787.402;   -8.928;47579.793
578.799;34538.324;   -9.358;47820.996
579.381;34812.906;  -11.388;48115.551
579.964;33145.461;  -11.718;47333.766
580.547;33771.367;   -8.588;46668.969
581.129;35271.664;   -8.859;44466.141
581.712;34571.520;  -10.729;44164.922
582.294;35831.699;  -11.118;46477.855
582.877;33817.906;   -5.218;48244.254
583.459;33406.434;   -8.679;47437.895
584.042;34597.180;  -10.709;46943.219
584.624;37736.516;  -11.669;46792.227
585.206;37823.797;   -8.218;46557.250
585.789;35694.656;  -10.569;45793.773
586.371;34783.852;  -11.859;43836.391
586.953;33502.035;  -10.719;42972.492
587.536;34383.176;   -7.198;42487.211
588.118;36345.906;   -8.720;42086.414
588.700;36019.180;  -10.439;43389.930
589.282;35256.984;   -9.198;43646.039
589.864;34778.719;   -9.199;43438.109
590.446;32730.422;  -11.319;43151.926
591.028;31658.346;  -11.159;42781.867
591.610;31012.809;  -11.779;42839.098
592.192;28342.125;   -7.668;42820.402
592.774;29453.709;  -11.949;40724.277
593.356;30781.439;  -12.129;39874.789
593.937;30566.734;  -10.669;39980.648
594.519;31933.125;   -6.509;42069.633
595.101;34069.340;  -10.849;42976.031
595.683;33172.449;  -11.679;44084.441
596.264;31122.279;   -9.049;43478.797
596.846;31647.059;   -8.849;43803.672
597.427;32676.736;   -9.570;42986.934
598.009;32372.594;  -12.620;42832.219
598.591;31850.895;  -10.039;42580.086
599.172;31663.324;  -10.369;43061.805
599.753;31302.816;   -9.140;41691.469
600.335;31194.834;  -11.430;40692.520
600.916;32014.678;   -9.939;39982.422
601.498;31497.018;   -8.479;40318.617
602.079;30150.471;  -10.920;40670.609
602.660;31598.609;  -11.480;41450.898
603.241;32524.463;  -11.699;41137.738
603.823;32925.816;   -9.579;38868.797
604.404;32896.910;  -10.620;38182.785
604.985;31345.271;  -10.450;38078.047
605.566;30492.666;   -9.129;38056.633
606.147;30520.625;   -7.510;37020.418
606.728;31717.975;  -10.660;37883.359
607.309;32301.973;  -11.740;38748.273
607.890;31133.172;   -9.759;38850.230
608.471;29693.041;   -8.250;37457.918
609.051;31117.652;   -9.240;36066.457
609.632;29750.477;  -12.120;35991.074
610.213;27841.096;   -9.110;37402.641
610.794;28684.215;   -8.030;38383.363
611.374;31338.344;   -8.110;40562.387
611.955;32140.910;  -13.560;38533.727
612.536;30056.721;  -11.400;36951.789
613.116;29597.721;   -8.070;37197.891
613.697;31297.922;  -10.830;38411.125
614.277;31580.732;  -11.641;38673.938
614.858;30500.932;  -13.310;37075.863
615.438;29436.826;   -7.460;35092.906
616.019;28511.111;   -7.601;33666.301
616.599;29034.568;  -12.020;34189.023
617.179;30521.416;  -11.780;36952.047
617.760;32801.523;   -8.570;39582.574
618.340;32744.936;  -11.471;38943.977
618.920;30396.857;  -11.170;37594.156
619.500;31600.477;  -11.071;37866.938
620.080;32228.826;   -7.750;37869.043
620.660;31470.891;  -12.711;36868.617
621.241;30866.965;  -10.211;36352.309
621.821;29794.615;  -10.961;35459.520
622.401;28400.051;   -7.720;35207.414
622.980;29477.514;   -8.981;35980.422
623.560;29938.867;   -9.331;37351.328
624.140;28568.074;   -9.850;34388.582
624.720;26119.918;   -7.451;32368.764
625.300;24605.182;   -9.070;32638.629
625.880;28333.215;  -12.601;34599.035
626.459;31185.303;  -11.751;36831.738
627.039;31728.771;   -9.281;38299.098
627.619;33011.824;   -8.801;38289.574
628.198;33285.105;  -12.071;37220.695
628.778;31423.381;   -9.461;37632.563
629.357;31775.742;   -8.491;38003.012
629.937;31820.887;   -9.721;38402.039
630.516;31734.969;   -9.951;37868.801
631.096;31417.617;  -11.731;35760.410
631.675;33162.473;   -8.572;35225.219
632.254;33243.313;  -11.282;35130.289
632.834;32832.574;  -13.322;35794.570
633.413;33181.008;  -10.301;35788.922
633.992;32796.711;   -8.582;34532.863
634.571;33232.527;   -8.352;33590.113
635.151;32503.256;  -11.912;34943.863
635.730;31036.535;  -10.511;35352.523
636.309;32571.363;   -7.731;35366.605
636.888;32587.361;   -9.952;36165.637
637.467;32042.566;  -11.672;37515.902
638.046;31438.484;   -8.901;39288.695
638.625;31589.467;   -7.912;38279.699
639.204;32302.262;  -10.022;37741.598
639.782;31114.896;  -12.252;38364.551
640.361;29221.238;  -10.041;36740.621
640.940;27925.998;  -11.161;34950.082
641.519;29448.256;   -9.701;34137.398
642.097;32359.807;  -11.271;35654.258
642.676;33182.109;   -8.651;35637.957
643.255;34656.219;   -8.711;36567.074
643.833;32935.625;   -9.581;37809.434
644.412;29792.318;  -13.711;37337.293
644.990;29947.629;  -11.811;37018.531
645.569;32270.438;   -9.411;36518.469
646.147;32013.342;  -10.291;36186.430
646.726;30806.711;  -12.401;36267.688
647.304;30174.139;  -10.411;36647.625
647.882;30483.912;   -9.651;39286.742
648.461;31860.828;   -9.631;39157.703
649.039;34493.941;  -11.881;35412.883
649.617;35628.984;   -9.661;34744.918
650.195;33923.070;   -9.301;35403.098
650.773;32219.096;  -10.511;35053.797
651.352;30943.926;  -11.521;33756.816
651.930;28134.771;  -12.211;31868.773
652.508;24852.168;   -9.171;33121.551
653.086;25958.518;   -9.371;33564.793
653.663;31085.898;  -13.161;34054.668
654.241;33252.219;  -13.031;35693.309
654.819;34940.910;   -9.371;36422.906
655.397;35106.453;  -10.511;38213.484
655.975;33080.590;  -10.371;39507.625
656.553;31774.896;  -10.051;39498.223
657.130;31230.818;  -10.061;40395.480
657.708;29533.912;   -9.561;39242.020
658.286;26160.781;  -11.511;38920.020
658.863;26219.607;  -10.261;40202.898
659.441;30426.518;   -7.531;39677.938
660.018;32539.121;   -9.501;40413.355
660.596;31418.127;  -13.301;39931.414
661.173;29680.621;  -11.211;39604.531
661.750;30754.871;   -9.951;39700.070
662.328;31023.533;   -9.390;39292.809
662.905;30031.992;  -11.330;38235.648
663.482;27274.109;   -9.050;36212.305
664.060;24844.664;   -8.240;35944.945
664.637;26453.807;  -10.050;35170.785
665.214;29723.752;  -11.760;34197.523
665.791;31073.064;  -10.530;34549.520
666.368;30286.943;   -9.690;35118.578
666.945;30825.029;   -9.320;36019.418
667.522;30365.887;  -11.860;36048.438
668.099;31591.744;  -10.770;36243.914
668.676;32682.639;   -6.260;35958.875
669.253;34833.738;   -7.000;37384.730
669.830;36245.336;  -10.190;36779.629
670.407;33393.098;   -9.550;35231.289
670.984;32965.414;   -9.260;35544.270
671.560;29976.984;   -9.280;35466.867
672.137;24414.180;  -11.810;34280.863
672.714;25469.334;  -11.490;34632.863
673.290;31342.957;   -7.740;35135.422
673.867;32055.229;  -10.660;36114.480
674.443;31806.928;  -12.230;36152.859
675.020;31147.068;  -10.450;35327.238
675.596;31538.262;   -9.260;35795.176
676.173;31692.633;  -10.780;35430.355
676.749;30283.570;  -13.690;33549.516
677.326;29456.039;  -11.980;32210.012
677.902;28682.959;   -8.630;32068.871
678.478;29552.936;  -10.730;32583.891
679.054;30483.404;  -10.520;32088.928
679.631;30913.039;  -11.920;30978.848
680.207;31008.789;   -7.490;33160.887
680.783;32534.547;   -9.860;35570.363
681.359;33328.934;  -13.380;36125.184
681.935;33083.074;  -12.480;35240.922
682.511;31586.438;   -7.900;34429.961
683.087;30854.256;   -7.710;34463.680
683.663;30524.234;  -11.480;34648.898
684.239;29893.854;  -14.090;34546.457
684.815;29282.451;   -7.560;35586.375
685.390;29468.287;   -9.910;35821.895
685.966;30331.758;  -11.159;35085.871
686.542;30907.643;  -11.169;34198.230
687.118;32297.416;   -5.959;32847.707
687.693;31786.602;  -10.329;32794.027
688.269;31565.947;  -12.059;33072.367
688.844;33002.773;  -10.909;33141.664
689.420;32337.432;   -8.019;33965.742
689.995;30754.631;   -8.399;34655.523
690.571;31601.771;  -10.949;33576.742
691.146;31374.068;   -9.619;32657.219
691.722;29821.100;   -8.999;32526.979
692.297;28365.213;  -11.589;33014.617
692.872;28724.559;  -11.739;34012.254
693.448;31845.656;  -11.059;34237.434
694.023;32203.609;  -10.139;34142.672
694.598;28545.586;   -9.029;34132.031
695.173;29379.332;  -13.319;34205.250
695.748;31161.982;  -10.169;32882.488
696.323;29486.484;   -8.339;32864.906
696.898;28032.611;   -8.169;33170.004
697.473;27837.340;  -12.309;32432.984
698.048;27665.430;  -10.989;31649.303
698.623;27379.982;   -9.329;30778.141
699.198;28301.381;   -9.849;31140.119
699.773;29077.934;  -12.329;31764.299
700.348;30660.428;  -10.389;31780.816
700.922;30355.771;   -9.269;32046.375
701.497;30789.813;   -9.329;32603.574
702.072;32190.295;  -10.789;34799.871
702.646;31171.211;  -10.839;35793.172
703.221;31493.998;   -9.099;35201.590
703.795;33297.340;  -10.939;34764.527
704.370;30830.818;  -12.859;34307.367
704.944;28946.836;  -11.559;33509.887
705.519;29176.723;   -7.939;31388.584
706.093;31047.449;  -10.499;31340.104
706.668;33041.219;  -11.289;32630.281
707.242;32716.934;  -11.509;32728.779
707.816;29976.777;   -9.639;32947.238
708.390;29159.070;  -11.429;33277.855
708.965;29629.008;  -11.869;33834.336
709.539;31608.480;  -11.689;33709.273
710.113;31451.242;  -10.478;33044.313
710.687;30131.158;  -10.228;31953.992
711.261;28944.453;  -13.698;30505.949
711.835;29324.063;  -13.378;30262.369
712.409;29044.357;   -9.698;31254.447
712.983;27619.746;  -11.898;32754.986
713.557;29546.107;  -15.138;34018.824
714.131;28464.322;  -14.098;34579.625
714.704;28114.602;   -9.958;33890.262
715.278;29234.773;  -10.028;33531.102
715.852;27784.584;  -11.148;33601.660
716.425;26917.193;   -9.068;33515.117
716.999;26267.096;  -10.038;33185.555
717.573;25985.480;   -9.798;33905.996
718.146;25621.287;  -12.378;35199.293
718.720;25760.229;  -11.918;35060.551
719.293;26488.482;   -8.088;34973.230
719.867;29027.430;  -10.888;36394.449
720.440;31623.713;  -11.938;36663.008
721.013;31983.779;  -12.818;35102.426
721.587;29300.260;  -10.298;33985.266
722.160;27713.557;  -10.048;33524.965
722.733;26734.232;  -12.108;32987.043
723.306;26492.924;  -10.818;33066.301
723.880;27894.367;   -8.908;33399.500
724.453;26790.717;   -9.878;33468.297
725.026;27229.869;  -11.188;33816.637
725.599;31132.209;  -11.678;32797.996
726.172;31225.748;   -9.618;33187.434
726.745;27822.104;   -8.258;35136.613
727.318;26756.395;  -12.978;35751.730
727.891;26452.484;  -12.148;35890.430
728.463;26259.871;   -8.968;34822.090
729.036;25797.719;  -10.188;32895.086
729.609;26078.768;  -11.788;31823.225
730.182;24873.941;  -11.788;31445.283
730.754;23132.564;  -10.268;32373.223
731.327;22583.500;   -9.998;33676.820
731.900;23806.564;  -12.228;33417.000
732.472;24948.564;  -13.848;31978.498
733.045;24857.209;   -8.698;30368.777
733.617;23352.467;  -10.607;30574.215
734.190;24598.617;  -11.507;31280.975
734.762;25893.840;  -13.647;31674.412
735.334;25709.133;   -9.767;31247.291
735.907;25670.158;   -9.897;29876.211
736.479;25597.469;  -11.637;29808.488
737.051;27477.133;   -9.567;30233.547
737.623;28058.875;   -8.187;31469.086
738.195;27174.955;  -11.187;31784.225
738.768;25850.396;  -12.337;32120.523
739.340;23496.646;  -12.227;32094.342
739.912;22385.855;  -11.057;31312.680
740.484;21732.477;  -10.207;31946.238
741.056;21021.691;  -10.047;32984.059
741.628;22041.453;  -13.627;33897.715
742.199;23988.324;   -7.177;33213.016
742.771;26850.906;  -10.797;31369.113
743.343;28330.928;  -11.997;31865.473
743.915;27921.545;  -12.867;32388.631
744.487;25026.223;   -7.617;31079.568
745.058;21823.225;   -9.557;30570.107
745.630;22152.172;   -9.877;29970.127
746.201;23566.434;  -14.177;29186.766
746.773;24080.221;   -9.237;28805.723
747.344;23341.500;   -9.847;29591.223
747.916;22022.418;  -11.657;31412.201
748.487;22420.045;  -10.587;32194.898
749.059;23700.350;   -8.707;32533.719
749.630;24281.381;  -10.537;32158.518
750.201;23758.416;  -11.687;30855.395
750.773;22307.848;  -11.647;28622.555
751.344;21318.523;   -7.147;28405.732
751.915;22442.662;   -9.757;28461.551
752.486;23842.365;  -12.427;27842.850
753.057;23257.252;  -12.227;27845.008
753.628;23211.447;  -10.417;27728.107
754.199;22123.994;  -11.767;27381.086
754.770;22012.938;  -11.187;25882.203
755.341;22076.625;  -10.507;25886.184
755.912;20681.336;   -9.387;26050.861
756.483;18889.775;  -10.647;26798.779
757.054;19275.051;  -11.837;27048.238
757.625;19368.820;  -12.716;26294.838
758.195;19487.127;   -9.666;26142.076
758.766;20108.932;   -8.656;26392.234
759.337;19472.262;  -12.856;26334.594
759.907;19420.572;  -13.366;27579.652
760.478;19318.799;   -8.576;28352.770
761.048;19747.607;  -10.526;27325.088
761.619;19908.482;  -11.116;26460.428
762.189;18541.297;  -12.136;26029.826
762.760;18091.525;   -9.456;26430.145
763.330;18639.811;   -7.136;26670.902
763.900;19078.646;  -11.786;26603.021
764.471;18502.379;  -11.546;25542.740
765.041;17453.576;   -8.096;24358.459
765.611;16796.570;   -8.876;23991.297
766.181;16587.146;  -12.196;24470.236
766.751;16387.086;  -11.636;24845.975
767.321;16899.836;  -10.156;24533.633
767.891;16840.006;  -11.766;24916.492
768.461;17122.268;  -14.936;24776.771
769.031;18195.426;  -12.356;24757.988
769.601;18804.465;   -7.526;24181.088
770.171;18485.094;  -10.766;23670.387
770.741;17378.625;  -13.176;22960.045
771.311;16911.887;  -10.616;22917.523
771.880;17016.283;   -9.576;23562.941
772.450;16617.820;  -10.336;24216.500
773.020;16548.938;  -13.516;24140.398
773.589;17363.928;  -13.466;24414.857
774.159;17014.131;   -8.686;23858.717
774.729;16100.284;   -9.476;22942.135
775.298;14601.190;  -13.666;22324.033
775.867;14124.229;  -11.716;21140.313
776.437;14429.378;   -9.906;20838.092
777.006;13646.243;  -12.166;20599.510
777.576;12903.744;  -12.356;20508.809
778.145;13017.042;  -11.646;20732.947
778.714;13282.372;   -8.226;21062.465
779.283;13957.705;   -9.556;20949.664
779.853;14632.520;  -14.116;20508.623
780.422;14207.795;  -11.506;20649.082
780.991;13778.089;   -9.556;21527.520
781.560;13428.599;   -9.095;22632.658
782.129;12920.893;  -12.135;23048.277
782.698;12865.302;  -10.865;23438.555
783.267;12781.996;   -9.335;23267.734
783.836;12882.479;  -11.045;22415.133
784.404;13668.326;  -13.865;20443.152
784.973;13252.767;  -13.095;19699.150
785.542;12000.419;  -11.575;19763.828
786.111;11328.431;   -9.705;20341.408
786.679;11841.592;  -12.105;20207.967
787.248;12139.271;  -12.455;19516.465
787.817;11538.934;  -11.535;18900.363
788.385;11659.856;   -9.765;17879.121
788.954;12042.774;  -14.005;17658.301
789.522;11655.465;  -11.955;17788.879
790.090;11646.924;  -10.135;18118.277
790.659;12730.604;  -10.975;18338.736
791.227;12948.002;  -13.375;18508.615
791.795;12313.296;  -12.375;17898.254
792.364;11722.756;  -10.725;17295.133
792.932;11683.165;   -9.715;16822.051
793.500;11700.069;  -12.675;17040.148
794.068;11356.417;  -13.495;17179.787
794.636;10222.214;  -10.885;16664.246
795.204; 9183.561;  -11.045;16524.545
795.772; 9702.840;  -13.175;17274.564
796.340;11073.381;  -12.445;17891.002
796.908;10933.971;   -9.735;17648.561
797.476;10912.382;   -9.815;17064.080
798.044;11436.656;  -13.985;16672.777
798.612;11298.328;  -13.115;17023.996
799.180;10228.662;  -10.185;16561.615
799.747; 8991.708;   -9.055;15962.773
800.315; 8083.521;  -12.385;15296.992
800.883; 8344.312;  -15.035;14801.771
801.450; 9103.836;  -10.365;14534.430
802.018; 9544.130;   -9.855;14173.248
802.585; 9941.053;  -11.905;14029.547
803.153; 9576.286;  -11.585;13836.846
803.720; 8745.858;   -9.095;13567.324
804.287; 8812.603;   -9.135;13360.622
804.855; 9435.847;  -11.604;13681.981
805.422; 9513.854;  -11.794;13536.560
805.989; 9049.161;  -10.734;13355.958
806.556; 8507.423;  -10.444;13747.896
807.124; 8335.523;  -12.764;13987.376
807.691; 8913.620;  -12.964;14038.674
808.258; 9266.068;  -11.134;14120.152
808.825; 9259.182;   -9.854;13860.111
809.392; 8827.916;  -10.504;13268.790
809.959; 8318.280;  -13.054;12680.389
810.526; 8039.094;   -8.294;12427.308
811.093; 7856.639;   -8.394;12030.105
811.659; 7343.758;  -12.304;11653.664
812.226; 7097.685;  -13.944;11637.183
812.793; 7586.315;  -10.484;11611.521
813.360; 7833.733;  -10.144;11885.181
813.926; 7304.098;  -11.684;12770.539
814.493; 6595.255;  -13.644;12677.638
815.060; 6348.853;   -9.724;11974.336
815.626; 6572.182;   -9.854;11594.715
816.193; 6645.612;  -13.254;11579.474
816.759; 6578.688;  -13.204;11666.972
817.325; 6513.049;   -9.434;11325.530
817.892; 6345.333;  -10.134;11105.369
818.458; 6278.465;  -13.474;10843.928
819.024; 6029.194;  -11.854;10714.406
819.591; 6075.425;  -10.244;10469.165
820.157; 6228.740;  -10.704;10235.523
820.723; 6577.342;  -12.324;10847.563
821.289; 7069.332;   -9.444;11040.980
821.855; 7169.958;   -8.374;10357.100
822.421; 6846.501;  -10.234; 9978.918
822.987; 6612.201;  -13.294; 9754.177
823.553; 6624.347;  -10.884;10065.755
824.119; 6290.722;   -8.884;10036.294
824.685; 6069.414;   -6.784;10029.192
825.251; 5979.548;  -12.004;10199.230
825.816; 6199.272;  -11.474; 9820.189
826.382; 6141.002;   -9.174; 9297.248
826.948; 5753.672;   -9.214; 9381.347
827.513; 5356.708;  -10.774; 9450.726
828.079; 5250.001;  -11.924; 9472.444
828.645; 5258.557;  -10.543; 9292.643
829.210; 5267.653;  -10.533; 9065.341
829.776; 5256.309;  -10.753; 9132.620
830.341; 5281.405;  -10.173; 9092.878
830.906; 5462.278;  -10.743; 9078.557
831.472; 5536.085;  -11.113; 8534.535
832.037; 5109.576;  -10.603; 8677.874
832.602; 4906.936;  -13.323; 8628.692
833.167; 5166.575;  -10.823; 8879.031
833.733; 5124.879;  -10.113; 9189.790
834.298; 4973.759;  -13.583; 9052.608
834.863; 4893.289;  -12.703; 8895.087
835.428; 4747.815;  -10.523; 8824.266
835.993; 4598.796;   -6.963; 8845.385
836.558; 4587.271;  -10.763; 8888.563
837.123; 4716.713;   -9.903; 8966.582
837.688; 4617.491;   -9.913; 8617.860
838.253; 4551.905;  -10.283; 8590.699
838.817; 4740.461;  -12.963; 8443.797
839.382; 4930.176;  -14.243; 8799.356
839.947; 4724.363;  -10.733; 8810.595
840.511; 4625.308;   -9.383; 8796.394
841.076; 4711.624;  -12.563; 8347.231
841.641; 4576.272;  -12.953; 8224.330
842.205; 4230.567;   -7.043; 8223.349
842.770; 4141.152;   -8.163; 8622.107
843.334; 4253.828;  -12.503; 8410.386
843.898; 4333.961;  -11.693; 8337.465
844.463; 4277.029;  -10.203; 8506.283
845.027; 4155.536;   -9.533; 8280.962
845.591; 4201.875;  -13.443; 8231.141
846.156; 4151.488;  -13.143; 7969.179
846.720; 3906.708;   -9.433; 7768.278
847.284; 3484.882;  -11.033; 7630.957
847.848; 3289.990;  -10.403; 7472.395
848.412; 3426.044;  -11.553; 7437.394
848.976; 3704.935;   -8.393; 7674.592
849.540; 3825.890;   -8.713; 7836.011
850.104; 3787.899;  -12.463; 7913.669
850.668; 3825.357;  -12.973; 7694.508
851.232; 3792.695;  -10.793; 7756.887
851.796; 3711.238;  -10.662; 7926.545
852.359; 3767.809;  -13.082; 7827.844
852.923; 3562.893;  -12.192; 7641.163
853.487; 3404.693;  -11.912; 7342.501
854.050; 3538.008;  -10.892; 7042.820
854.614; 3511.088;  -13.992; 7151.338
855.177; 3341.952;  -11.732; 7105.077
855.741; 3258.537;   -8.962; 6989.675
856.304; 3230.609;   -9.442; 6596.634
856.868; 3056.146;  -14.192; 6356.272
857.431; 2895.819;  -12.702; 6468.571
857.995; 2989.258;   -9.942; 6373.210
858.558; 3043.728;   -9.112; 6324.448
859.121; 2763.893;  -12.932; 6408.327
859.684; 2530.467;  -13.442; 6347.886
860.247; 2805.233;  -10.632; 6321.264
860.810; 3226.574;  -11.272; 6301.903
861.374; 3327.533;   -9.832; 6607.881
861.937; 3319.283;  -11.762; 6408.200
862.500; 3254.781;   -9.722; 6572.639
863.062; 2943.392;  -10.512; 6387.297
863.625; 2706.802;  -11.232; 6190.836
864.188; 2630.570;  -14.112; 5807.254
864.751; 2584.515;  -11.302; 5682.413
865.314; 2726.951;  -10.112; 5547.492
865.876; 2924.979;  -12.182; 5500.150
866.439; 2992.848;  -10.722; 5415.909
867.002; 2890.286;   -9.252; 5501.567
867.564; 2749.637;   -9.572; 5413.946
868.127; 2598.202;  -13.142; 5160.325
868.689; 2301.461;  -12.902; 5133.183
869.252; 2080.572;   -9.732; 5252.382
869.814; 2067.913;   -9.432; 5297.141
870.377; 2235.353;  -11.552; 5390.919
870.939; 2284.786;   -9.052; 5599.898
871.501; 2202.671;  -10.982; 5248.336
872.063; 2246.936;  -12.292; 4854.235
872.626; 2254.116;  -14.912; 4817.074
873.188; 2324.194;  -13.112; 4987.732
873.750; 2393.404;  -13.442; 4868.651
874.312; 2498.503;   -9.402; 4779.330
874.874; 2640.176;  -11.062; 4866.348
875.436; 2362.095;  -13.931; 4718.887
875.998; 1717.103;   -9.561; 4660.005
876.560; 1215.582;  -11.321; 4462.964
877.122;  985.041;  -12.221; 4145.042
877.683;  928.912;  -12.191; 4056.481
878.245; 1070.710;  -12.101; 3950.740
878.807; 1303.939;   -8.971; 4058.958
879.369; 1428.190;  -12.071; 3954.677
879.930; 1426.637;  -14.621; 3941.495
880.492; 1358.671;  -10.311; 4067.014
881.053; 1268.378;  -10.901; 3859.633
881.615; 1256.599;  -14.411; 3776.071
882.176; 1291.060;  -13.761; 3734.750
882.738; 1337.087;   -9.181; 3678.489
883.299; 1327.344;  -11.791; 3405.407
883.860; 1255.174;  -13.121; 3351.106
884.422; 1165.328;  -11.211; 3394.044
884.983; 1113.233;  -10.091; 3166.443
885.544; 1105.172;   -8.461; 3189.802
886.105; 1066.503;  -12.361; 3160.360
886.666; 1010.535;  -14.141; 3093.059
887.227;  989.405;  -11.361; 2941.957
887.788; 1004.552;  -11.401; 2974.836
888.349;  969.736;  -13.791; 2721.214
888.910;  885.096;  -13.191; 2696.493
889.471;  790.396;   -9.881; 2560.172
890.032;  718.225;   -9.881; 2558.190
890.593;  704.763;  -10.371; 2567.669
891.153;  707.058;  -13.301; 2460.307
891.714;  652.522;  -11.431; 2372.046
892.275;  602.252;  -11.291; 2309.505
892.835;  601.203;  -11.471; 2382.543
893.396;  594.787;  -11.541; 2295.502
893.956;  574.105;  -11.181; 2162.420
894.517;  540.665;  -11.741; 2125.439
895.077;  486.972;  -11.671; 2086.978
895.638;  443.202;  -11.311; 2126.316
896.198;  428.458;   -9.831; 1838.275
896.758;  426.771;   -8.421; 1892.813
897.319;  415.362;  -12.351; 1792.232
897.879;  395.862;  -13.511; 1762.751
898.439;  373.532;  -12.001; 1661.149
898.999;  354.167;  -10.180; 1781.468
899.559;  339.057;  -12.030; 1703.347
900.119;  333.886;  -15.710; 1537.525
900.679;  322.774;   -8.900; 1638.384
901.239;  297.507;   -8.340; 1527.902
901.799;  278.418;  -13.910; 1456.441
902.359;  265.769;  -13.460; 1357.140
902.919;  261.527;  -11.490; 1331.118
903.479;  259.035;  -12.110; 1317.257
904.038;  251.141;  -11.720; 1262.595
904.598;  235.913;  -13.610; 1152.034
905.158;  223.424;  -11.040; 1240.893
905.717;  216.316;  -10.900; 1233.691
906.277;  211.646;  -15.080; 1217.330
906.836;  208.667;  -13.380; 1222.408
907.396;  206.545;  -10.780; 1193.047
907.955;  200.890;   -8.500; 1182.526
908.515;  192.588;  -12.760; 1099.364
909.074;  187.437;  -11.900; 1092.863
909.633;  186.250;   -8.950; 1069.121
910.192;  182.698;   -8.770; 1196.460
910.752;  176.405;  -12.390; 1029.960
911.311;  172.567;  -13.680; 1009.780
911.870;  168.928;  -12.370;  971.460
912.429;  165.774;  -10.900; 1094.080
912.988;  164.394;  -11.690; 1081.060
913.547;  159.494;  -13.240;  940.380
914.106;  158.923;  -11.990;  999.420
914.665;  159.221;   -9.990;  984.020
915.224;  157.058;  -12.880; 1035.760
915.782;  155.809;  -12.350;  922.560
916.341;  156.914;   -9.110; 1049.840
916.900;  153.867;   -9.270;  925.260
917.458;  147.577;  -13.240;  884.220
918.017;  143.388;  -13.550;  942.600
918.576;  141.825;  -12.320;  904.440
919.134;  141.141;  -11.490;  837.980
919.693;  141.607;  -13.670;  893.060
920.251;  140.560;  -15.470;  876.500
920.809;  140.752;  -11.290;  839.580
921.368;  140.806;  -10.210;  885.360
921.926;  141.327;  -12.140;  842.940
922.484;  140.866;  -13.080;  903.360
923.042;  140.610;  -11.720;  880.340
923.601;  142.006;   -7.480;  998.680
924.159;  140.441;  -11.570;  935.560
924.717;  138.978;  -13.840;  841.080
925.275;  142.050;  -10.640;  903.240
925.833;  140.711;  -11.540;  779.320
926.391;  140.882;  -12.960;  938.380
926.949;  139.732;  -14.130;  857.680
927.506;  141.595;  -11.750;  903.500
928.064;  140.375;  -10.250;  877.580
928.622;  140.002;  -13.030;  880.100
929.180;  140.252;  -13.400;  814.180
929.737;  140.979;  -10.700;  808.540
930.295;  143.033;  -10.070;  928.480
930.853;  143.191;  -11.960;  849.100
931.410;  142.111;  -13.120;  821.120
931.968;  142.334;  -10.770;  940.660
932.525;  143.482;  -10.680;  909.380
933.082;  146.324;  -13.130;  811.440
933.640;  152.328;  -13.210;  925.900
934.197;  154.434;  -11.060;  886.360
934.754;  155.501;   -9.580;  897.780
935.312;  156.883;  -14.000;  863.340
935.869;  158.892;  -10.710; 1012.980
936.426;  157.002;   -9.860;  872.800
936.983;  157.617;   -9.710;  889.020
937.540;  155.699;  -13.990;  838.280
938.097;  154.395;  -14.040;  940.120
938.654;  156.831;  -10.310;  898.860
939.211;  156.685;  -10.560;  952.480
939.768;  154.141;  -13.900;  915.420
940.324;  155.188;  -14.760;  904.200
940.881;  160.187;  -10.370;  878.500
941.438;  164.916;   -8.260; 1021.200
941.995;  165.367;  -12.540;  992.560
942.551;  164.556;  -14.670;  875.620
943.108;  165.640;  -10.450;  937.920
943.664;  166.539;  -10.750;  869.340
944.221;  170.660;  -11.550; 1088.140
944.777;  171.652;  -14.770;  869.680
945.334;  172.788;  -12.820;  884.840
945.890;  173.539;  -10.130;  946.480
946.446;  171.587;  -13.470;  947.020
947.003;  172.198;  -12.120;  964.940
947.559;  174.890;   -9.980; 1063.040
948.115;  172.789;   -9.080; 1026.540
948.671;  170.930;  -10.830;  967.300
949.227;  165.175;  -12.440;  859.560
949.783;  163.078;  -12.910;  858.900
950.339;  165.160;  -10.270;  991.000
950.895;  165.195;  -13.630; 1023.840
951.451;  163.051;  -15.100;  925.280
952.007;  163.091;  -11.330;  998.540
952.563;  162.770;  -10.580;  937.780
953.118;  159.335;  -13.440;  904.940
953.674;  155.642;  -12.710;  935.780
954.230;  156.872;  -10.350;  949.640
954.785;  158.648;   -9.190;  936.640
955.341;  158.883;  -11.200;  998.160
955.897;  154.769;  -16.560;  834.660
956.452;  152.523;  -12.570;  953.840
957.008;  150.901;   -7.970; 1083.640
957.563;  149.742;  -11.940; 1009.540
958.118;  148.794;  -13.450;  877.700
958.674;  149.414;  -12.030;  946.780
959.229;  149.349;   -9.410; 1013.980
959.784;  147.212;  -12.000;  832.400
960.339;  142.723;  -14.780; 1001.280
960.894;  137.395;   -9.860;  963.760
961.449;  131.758;   -9.970;  859.960
962.004;  130.508;  -10.900; 1212.840
962.559;  125.377;  -13.150;  860.140
963.114;  122.763;  -13.740;  742.480
963.669;  126.350;   -9.820;  915.500
964.224;  126.736;  -13.890;  874.340
964.779;  126.450;  -12.600;  828.420
965.334;  126.715;  -10.950; 1017.860
965.888;  122.746;  -11.170;  875.360
966.443;  122.319;  -12.540;  972.380
966.998;  121.748;  -15.780;  819.460
967.552;  122.758;   -9.760;  908.380
968.107;  118.314;   -9.060;  868.300
968.661;  116.918;  -11.950;  922.440
969.216;  114.957;  -12.800;  856.280
969.770;  115.612;  -11.210;  917.200
970.324;  113.920;  -11.610;  923.140
970.879;  110.374;  -11.370;  947.180
971.433;  110.162;  -12.540;  952.720
971.987;  108.061;  -11.320;  895.340
972.541;  107.860;  -10.720;  917.100
973.095;  108.507;   -9.680; 1009.460
973.649;  107.227;  -11.440;  809.480
974.203;  107.340;  -11.210;  829.040
974.757;  107.865;  -10.240;  855.220
975.311;  106.770;  -13.720;  872.600
975.865;  107.751;  -13.770;  881.820
976.419;  107.302;  -11.690;  857.400
976.973;  107.766;   -9.510;  849.620
977.526;  107.192;  -12.620;  949.920
978.080;  103.537;  -12.010;  796.780
978.634;  102.206;  -10.170;  921.320
979.187;   99.048;   -9.020;  905.400
979.741;   98.081;   -9.820; 1018.380
980.294;   94.040;  -14.870;  789.160
980.848;   91.081;  -12.380;  717.220
981.401;   91.592;  -10.350;  816.540
981.955;   91.373;  -13.720;  844.300
982.508;   87.701;  -11.490;  746.340
983.061;   88.326;  -10.000;  915.260
983.615;   88.125;  -11.480;  798.800
984.168;   86.360;  -13.220;  770.080
984.721;   85.437;  -13.960;  880.760
985.274;   83.796;  -10.870;  867.500
985.827;   81.785;   -9.790;  834.220
986.380;   80.737;  -13.120;  721.340
986.933;   80.503;  -12.450;  864.800
987.486;   80.004;  -10.210;  861.920
988.039;   80.592;   -8.430;  863.100
988.591;   78.104;  -10.520;  893.260
989.144;   74.713;  -14.860;  737.260
989.697;   72.758;  -13.080;  758.740
990.250;   72.016;  -10.150;  858.100
990.802;   68.569;  -13.430;  755.860
991.355;   68.641;  -12.750;  974.880
991.907;   66.289;  -12.040;  864.320
992.460;   63.937;  -11.330;  753.760
993.012;   61.910;  -13.610;  749.540
993.565;   60.812;  -13.460;  711.360
994.117;   62.692;   -9.360;  950.780
994.669;   60.501;  -11.300;  701.320
995.221;   59.559;  -13.540;  791.920
995.774;   58.551;  -13.430;  787.580
996.326;   57.904;  -12.520;  740.220
996.878;   58.700;  -10.950;  838.420
997.430;   56.006;  -14.300;  699.860
997.982;   55.238;  -13.760;  750.140
998.534;   54.637;  -11.530;  739.060
999.086;   53.304;  -10.310;  738.220
999.638;   52.122;  -12.530;  661.380
1000.190;   51.162;  -11.840;  699.320
1000.741;   51.052;  -10.260;  742.700
1001.293;   50.618;   -8.860;  686.020
1001.845;   50.407;  -13.700;  676.640
1002.396;   50.163;  -12.100;  743.400
1002.948;   50.031;  -12.760;  737.400
1003.500;   48.106;  -10.380;  723.780
1004.051;   49.426;  -11.900;  907.580
1004.603;   47.167;  -12.250;  791.820
1005.154;   44.048;  -13.210;  608.980
1005.705;   43.256;  -10.950;  723.960
1006.257;   42.764;  -13.880;  707.220
1006.808;   41.288;  -12.840;  685.460
1007.359;   41.600;  -10.570;  763.240
1007.910;   40.308;   -9.620;  646.640
1008.461;   40.354;  -13.630;  732.940
1009.013;   38.848;  -17.200;  588.340
1009.564;   40.832;  -10.200;  793.520
1010.115;   38.265;  -12.570;  597.040
1010.665;   37.936;  -15.150;  602.160
1011.216;   38.347;  -14.480;  667.920
1011.767;   37.151;  -11.340;  697.920
1012.318;   38.402;   -9.780;  736.980
1012.869;   36.859;  -12.380;  679.000
1013.419;   36.545;  -15.560;  603.120
1013.970;   36.400;  -11.010;  666.640
1014.521;   36.382;  -11.610;  620.620
1015.071;   36.148;  -13.450;  670.380
1015.622;   35.128;  -13.870;  635.460
1016.172;   34.990;  -11.610;  596.820
1016.723;   35.071;  -12.120;  614.380
1017.273;   34.775;  -13.620;  604.160
1017.823;   34.043;  -14.140;  650.340
1018.374;   34.054;  -12.800;  611.760
1018.924;   34.295;  -12.340;  716.880
1019.474;   34.523;  -11.410;  718.880
1020.024;   32.379;  -14.770;  657.580
1020.574;   33.205;   -9.780;  726.160
1021.124;   34.071;   -8.560;  673.580
1021.674;   32.367;  -15.190;  559.120
1022.224;   33.252;  -13.530;  708.940
1022.774;   33.097;  -13.280;  668.820
1023.324;   33.462;  -10.690;  753.520
1023.874;   34.353;  -10.240;  875.760
1024.423;   31.279;  -12.540;  613.700
1024.973;   31.477;  -10.010;  610.760
1025.523;   30.579;  -10.550;  620.960
1026.072;   29.839;  -13.560;  606.420
1026.622;   30.058;  -15.120;  675.740
1027.172;   31.652;  -11.260;  715.660
1027.721;   29.673;  -11.410;  601.220
1028.270;   30.855;  -13.530;  663.400
1028.820;   30.354;  -13.680;  638.080
1029.369;   29.664;  -13.520;  612.700
1029.918;   30.092;  -10.980;  649.840
1030.468;   29.274;  -13.530;  564.780
1031.017;   29.635;  -13.170;  634.800
1031.566;   28.055;  -12.200;  608.900
1032.115;   29.746;   -9.960;  694.500
1032.664;   27.643;  -13.210;  596.480
1033.213;   27.981;  -12.500;  735.420
1033.762;   27.599;  -11.910;  635.620
1034.311;   27.680;   -9.640;  677.220
1034.860;   28.231;  -13.310;  691.000
1035.408;   28.536;  -11.830;  722.720
1035.957;   28.624;  -12.000;  719.540
1036.506;   27.259;  -11.690;  530.800
1037.055;   28.698;  -10.990;  844.320
1037.603;   26.943;  -15.120;  664.000
1038.152;   25.479;  -12.450;  534.760
1038.700;   26.896;  -10.560;  585.740
1039.249;   26.274;  -11.080;  681.220
1039.797;   26.661;  -12.540;  633.360
1040.345;   25.638;  -11.920;  705.420
1040.894;   25.919;  -11.410;  625.300
1041.442;   25.298;  -14.320;  632.200
1041.990;   24.642;  -16.240;  559.160
1042.538;   24.651;  -11.680;  536.180
1043.087;   24.906;  -10.760;  570.860
1043.635;   25.248;  -11.850;  670.500
1044.183;   24.605;  -15.480;  586.400
1044.731;   24.245;  -11.770;  576.000
1045.279;   24.445;  -13.090;  674.920
1045.827;   25.740;  -12.440;  892.400
1046.374;   22.902;  -13.840;  515.420
1046.922;   23.005;  -13.220;  590.580
1047.470;   24.764;  -10.230;  691.300
1048.018;   23.939;  -14.590;  647.960
1048.565;   24.829;  -12.050;  708.600
1049.113;   23.247;  -11.650;  557.000
1049.660;   23.012;  -10.510;  629.660
1050.208;   23.287;  -13.310;  675.640
1050.755;   22.499;  -15.900;  606.580
1051.303;   23.102;  -11.430;  686.820
1051.850;   22.531;   -8.480;  635.120
1052.397;   20.877;  -15.010;  473.960
1052.945;   21.188;  -13.960;  617.760
1053.492;   22.720;  -13.150;  741.840
1054.039;   23.241;   -9.630;  720.180
1054.586;   21.763;  -13.680;  557.240
1055.133;   22.073;  -14.570;  693.140
1055.680;   21.867;  -13.820;  646.620
1056.227;   21.171;  -11.730;  542.780
1056.774;   22.462;  -12.480;  794.980
1057.321;   19.624;  -13.930;  523.260
1057.868;   20.858;  -11.690;  651.320
1058.415;   20.744;   -9.520;  651.980
1058.961;   21.073;  -13.160;  678.940
1059.508;   20.373;  -12.920;  643.820
1060.055;   20.914;  -11.920;  581.780
1060.601;   21.165;  -11.500;  624.300
1061.148;   20.302;  -14.330;  616.820
1061.694;   19.380;  -16.870;  592.580
1062.241;   20.235;  -10.330;  596.320
1062.787;   21.001;  -10.620;  663.140
1063.334;   21.631;  -10.110;  808.560
1063.880;   19.925;  -13.400;  668.360
1064.426;   19.775;  -10.680;  706.820
1064.972;   18.515;   -9.920;  601.340
1065.518;   18.120;  -10.980;  566.640
1066.065;   18.933;  -14.890;  624.460
1066.611;   18.644;  -12.870;  598.800
1067.157;   19.136;  -12.950;  641.860
1067.703;   18.509;  -13.540;  668.480
1068.249;   18.593;  -13.540;  605.220
1068.794;   18.556;  -12.600;  626.880
1069.340;   17.006;  -10.620;  578.960
1069.886;   18.030;  -12.830;  590.700
1070.432;   16.647;  -14.870;  541.720
1070.977;   16.510;  -11.980;  601.080
1071.523;   17.542;   -8.200;  573.060
1072.068;   17.457;  -12.330;  582.000
1072.614;   16.513;  -16.370;  527.760
1073.160;   18.206;  -11.100;  687.040
1073.705;   16.613;  -10.480;  572.520
1074.250;   16.841;  -14.520;  559.900
1074.796;   17.116;  -11.460;  655.160
1075.341;   17.778;  -11.950;  664.100
1075.886;   16.845;  -11.460;  594.240
1076.431;   16.155;  -13.770;  649.880
1076.976;   16.411;  -12.680;  639.220
1077.521;   15.984;  -13.170;  583.080
1078.067;   15.853;  -10.860;  579.400
1078.612;   15.958;  -13.920;  661.620
1079.156;   15.357;  -13.880;  601.540
1079.701;   16.021;  -13.120;  693.260
1080.246;   16.306;   -9.940;  696.300
1080.791;   15.667;  -14.740;  625.020
1081.336;   15.626;  -13.750;  659.320
1081.880;   15.528;  -13.400;  649.680
1082.425;   15.688;  -12.220;  573.480
1082.970;   15.845;  -11.610;  717.040
1083.514;   14.663;  -13.580;  597.000
1084.059;   13.591;  -12.810;  586.720
1084.603;   14.320;  -12.320;  565.840
1085.147;   14.881;  -13.190;  645.220
1085.692;   15.423;  -12.480;  716.800
1086.236;   13.205;  -13.020;  503.140
1086.780;   15.809;   -9.190;  751.440
1087.325;   14.218;  -12.480;  654.620
1087.869;   14.601;  -12.450;  610.700
1088.413;   14.026;  -12.240;  705.040
1088.957;   12.790;   -9.020;  543.400
1089.501;   14.300;  -10.320;  766.640
1090.045;   13.807;  -12.720;  726.480
1090.589;   12.298;  -13.690;  569.920
1091.133;   13.490;  -10.020;  673.340
1091.676;   12.917;  -12.330;  591.940
1092.220;   12.525;  -14.970;  600.920
1092.764;   13.399;  -12.430;  706.960
1093.307;   14.272;   -9.800;  673.780
1093.851;   11.867;  -14.970;  556.540
1094.395;   12.626;  -15.310;  683.140
1094.938;   12.656;  -10.370;  632.520
1095.482;   12.470;  -11.050;  559.800
1096.025;   13.082;  -11.840;  710.880
1096.568;   13.170;  -12.840;  779.280
1097.112;    9.643;  -14.700;  508.180
1097.655;   12.393;   -8.720;  603.000
1098.198;   10.744;  -13.610;  600.180
1098.741;   10.879;  -13.350;  612.860
1099.285;   11.628;  -11.230;  657.300
1099.828;   10.411;  -11.840;  439.400
1100.371;   10.678;  -10.840;  608.160
1100.914;   10.889;  -14.190;  682.660
1101.457;   11.648;  -11.240;  679.900
1101.999;    9.738;  -11.270;  584.680
1102.542;   11.615;  -11.480;  641.440
1103.085;   10.121;  -11.750;  658.500
1103.628;   12.311;  -11.400;  762.060
1104.170;   10.062;  -10.490;  588.280
1104.713;   10.668;  -10.600;  646.700
1105.256;    9.016;  -14.360;  557.440
1105.798;    8.869;  -13.210;  499.980
1106.341;   11.332;  -10.270;  728.900
1106.883;    9.389;  -12.200;  521.340
1107.425;   10.006;  -13.110;  668.180
1107.968;    9.353;  -12.840;  612.380
1108.510;   11.327;   -6.480;  684.960
1109.052;    8.554;  -13.940;  612.620
1109.594;    8.810;  -13.690;  554.440
1110.136;    9.153;  -11.880;  643.220
1110.679;    8.967;   -9.500;  633.080
1111.221;    9.664;  -14.160;  604.460
1111.763;    8.340;  -13.980;  559.220
1112.304;    8.280;  -13.880;  547.140
1112.846;    9.756;  -12.210;  666.240
1113.388;   11.232;  -11.390;  942.180
1113.930;    8.201;  -14.540;  694.200
1114.472;    8.311;  -12.640;  606.540
1115.013;    7.434;  -11.620;  551.280
1115.555;    7.266;  -13.640;  587.100
1116.097;    6.612;  -15.380;  579.480
1116.638;    7.260;  -12.640;  684.600
1117.180;    8.996;   -9.850;  667.740
1117.721;    7.998;  -13.690;  568.580
1118.262;    8.261;  -12.680;  677.960
1118.804;    8.138;  -12.530;  637.340
1119.345;    7.116;  -11.690;  578.400
1119.886;    8.162;  -13.380;  704.040
1120.427;    6.055;  -14.070;  589.020
1120.969;    6.599;  -13.500;  597.920
1121.510;    6.076;  -11.480;  563.060
1122.051;    7.531;  -12.830;  723.580
1122.592;    5.896;  -14.290;  655.420
1123.133;    4.671;  -12.400;  547.940
1123.673;    8.054;  -10.130;  706.480
1124.214;    6.220;  -12.930;  612.460
1124.755;    6.847;  -14.380;  639.460
1125.296;    6.459;  -14.000;  627.320
1125.836;    7.294;  -10.070;  691.500
1126.377;    5.908;  -12.640;  599.660
1126.918;    6.815;  -12.960;  614.980
1127.458;    5.886;  -13.350;  622.220
1127.999;    6.902;  -10.750;  656.980
1128.539;    6.519;  -12.350;  694.240
1129.079;    5.009;  -14.860;  632.720
1129.620;    4.571;  -13.840;  558.100
1130.160;    5.230;  -12.330;  539.480
1130.700;    6.481;  -14.530;  640.840
1131.240;    5.531;  -12.530;  643.700
1131.781;    5.164;  -14.450;  619.680
1132.321;    5.644;   -9.790;  599.120
1132.861;    4.072;  -14.860;  564.200
1133.401;    3.575;  -14.290;  593.940
1133.941;    4.679;  -11.750;  626.280
1134.481;    4.712;   -9.920;  597.580
1135.020;    4.242;  -12.290;  609.160
1135.560;    5.056;  -11.650;  674.940
1136.100;    3.165;  -16.270;  501.160
1136.640;    3.973;  -10.890;  510.480
1137.179;    3.774;  -14.180;  537.960
1137.719;    3.905;  -16.250;  605.400
1138.258;    4.080;  -14.230;  587.360
1138.798;    4.411;   -9.090;  663.780
1139.337;    3.173;  -15.130;  482.840
1139.877;    3.739;  -13.680;  642.360
1140.416;    6.025;  -11.320;  878.060
1140.955;    2.912;  -10.860;  535.380
1141.494;    3.738;  -12.920;  669.280
1142.034;    2.508;  -13.930;  583.520
1142.573;    3.671;  -11.440;  646.280
1143.112;    3.191;  -12.000;  553.480
1143.651;    3.015;  -13.670;  536.480
1144.190;    3.978;  -12.730;  691.640
1144.729;    2.914;  -14.560;  607.420
1145.267;    3.582;  -11.830;  584.900
1145.806;    4.048;  -12.230;  637.040
1146.345;    2.427;  -14.130;  635.020
1146.884;    2.450;  -11.590;  622.500
1147.422;    1.872;  -12.550;  533.060
1147.961;    3.644;  -11.180;  708.460
1148.500;    2.736;  -11.510;  669.720
1149.038;    3.095;  -11.640;  632.500
1149.577;    3.109;  -10.130;  698.640
1150.115;    0.794;  -13.970;  452.280
1150.653;    2.776;  -14.520;  607.340
1151.192;    2.511;  -12.810;  552.920
1151.730;    2.430;   -9.100;  652.560
1152.268;    1.975;  -12.220;  589.520
1152.806;    1.980;  -14.140;  571.180
1153.344;    0.490;  -12.350;  577.640
1153.882;    2.516;   -8.980;  600.060
1154.421;    0.294;  -15.190;  470.620
1154.958;    0.784;  -15.210;  595.240
1155.496;    2.132;  -12.850;  645.280
1156.034;    2.122;   -9.940;  721.880
1156.572;    2.728;  -13.570;  667.060
1157.110;    0.618;  -14.590;  473.940
1157.647;    1.297;  -13.030;  676.960
1158.185;    1.454;  -12.140;  564.320
1158.723;   -0.721;  -14.390;  509.200
1159.260;    1.079;  -14.090;  701.700
1159.798;    1.334;  -11.920;  658.160
1160.335;    0.869;  -11.110;  631.820

