
Integration time [ms]:   3.276
Averaging Nr. [scans]: 1000
Smoothing Nr. [pixels]: 0
Data measured with spectrometer [name]: 7414430SP
Wave   ;Sample   ;Dark     ;Reference
[nm]   ;[counts] ;[counts] ;[counts] 

288.544;  160.054;    7.793;  793.890
289.143;  163.419;    7.462;  681.602
289.742;  164.121;    8.602;  828.814
290.341;  149.498;    1.321;  789.841
290.940;  140.652;   -0.709;  730.702
291.538;  142.699;    0.881;  881.108
292.137;  142.163;    0.122;  792.581
292.736;  143.073;   -1.929;  975.101
293.335;  139.750;   -8.229;  735.086
293.934;  142.395;   -5.279;  781.677
294.532;  141.879;   -1.369; 1031.958
295.131;  127.643;   -7.641;  834.394
295.730;  128.139;   -8.420;  809.588
296.328;  125.784;   -5.611;  783.442
296.927;  124.858;   -5.781;  779.652
297.525;  125.338;   -6.361;  781.236
298.124;  118.517;  -11.382;  654.009
298.722;  123.635;   -7.641;  761.933
299.321;  118.559;   -6.811;  708.597
299.919;  115.215;   -6.991;  751.918
300.518;  111.462;  -10.362;  689.338
301.116;  115.482;   -9.581;  691.381
301.715;  115.340;   -4.891;  730.222
302.313;  113.507;   -8.801;  704.943
302.911;  108.024;   -8.522;  733.830
303.509;  114.413;   -6.171;  925.627
304.108;  111.509;   -7.311;  760.383
304.706;  110.796;   -8.321;  801.664
305.304;  105.669;  -10.222;  796.707
305.902;  110.361;   -6.021;  784.484
306.500;  105.372;   -4.971;  728.200
307.098;  103.521;   -7.061;  746.560
307.696;  103.302;   -8.801;  780.432
308.294;  104.166;   -6.411;  731.359
308.892;  105.596;   -2.901;  759.769
309.490;  101.311;   -5.041;  712.161
310.088;   98.849;   -5.002;  788.444
310.686;  103.949;   -2.041;  821.749
311.284;   98.833;   -2.351;  766.040
311.882;   95.762;   -4.422;  731.225
312.480;   93.188;   -4.192;  697.167
313.078;   95.707;   -1.172;  808.331
313.675;   95.578;   -2.601;  691.600
314.273;   89.882;   -1.312;  797.837
314.871;   89.730;   -3.942;  589.829
315.468;   88.589;   -2.802;  652.090
316.066;   91.278;   -0.701;  694.427
316.664;   83.225;   -4.362;  656.351
317.261;   87.621;   -2.872;  910.128
317.859;   83.818;   -2.022;  768.735
318.456;   84.533;   -0.531;  830.096
319.054;   79.014;   -3.912;  787.828
319.651;   77.751;   -4.752;  759.928
320.249;   77.519;   -2.602;  810.188
320.846;   75.167;   -0.821;  714.286
321.443;   71.951;   -4.642;  832.135
322.041;   70.227;   -5.002;  812.315
322.638;   66.829;   -3.982;  701.456
323.235;   68.073;   -3.411;  665.683
323.833;   65.571;   -7.361;  740.354
324.430;   60.789;   -8.611;  615.900
325.027;   61.514;   -4.061;  876.855
325.624;   60.782;   -4.031;  644.532
326.221;   57.582;   -7.481;  689.717
326.818;   57.487;   -5.281;  818.332
327.415;   60.723;   -7.460;  748.828
328.012;   59.780;   -5.510;  690.585
328.609;   56.897;   -7.880;  731.389
329.206;   56.536;   -8.331;  778.621
329.803;   57.407;   -5.121;  737.841
330.400;   58.390;   -4.510;  704.260
330.997;   59.439;   -6.441;  817.147
331.594;   58.307;   -8.831;  788.185
332.191;   65.015;   -7.621;  728.722
332.787;   67.276;   -4.591;  844.463
333.384;   65.679;   -7.412;  763.093
333.981;   65.310;   -8.293;  815.687
334.578;   68.226;   -7.052;  708.378
335.174;   71.004;   -3.102;  731.469
335.771;   68.923;   -5.943;  836.456
336.367;   67.973;   -7.393;  710.631
336.964;   73.125;   -4.063;  793.266
337.561;   69.623;   -3.813;  731.112
338.157;   65.414;   -4.654;  911.916
338.754;   63.548;   -7.934;  796.589
339.350;   63.675;   -4.414;  722.493
339.946;   64.099;   -4.664;  773.135
340.543;   56.242;   -6.375;  846.136
341.139;   49.201;   -9.815;  720.836
341.735;   48.130;   -4.526;  772.593
342.332;   47.001;   -4.895;  691.472
342.928;   45.699;   -4.295;  795.394
343.524;   39.640;   -5.476;  761.684
344.120;   37.190;   -5.856;  738.562
344.716;   39.439;   -2.155;  723.717
345.313;   36.284;   -6.275;  795.342
345.909;   31.876;   -8.815;  627.336
346.505;   33.036;   -5.305;  740.247
347.101;   34.113;   -2.674;  827.864
347.697;   32.894;   -4.344;  785.398
348.293;   27.869;   -9.975;  627.244
348.889;   30.242;   -5.774;  745.914
349.485;   29.108;   -5.004;  688.205
350.081;   28.806;   -4.704;  772.592
350.676;   24.394;   -6.635;  691.606
351.272;   28.560;   -4.504;  809.530
351.868;   28.089;   -3.914;  780.497
352.464;   24.976;   -9.044;  723.932
353.059;   22.201;   -8.314;  646.017
353.655;   25.465;   -7.024;  777.063
354.251;   25.721;   -5.343;  759.845
354.846;   19.729;   -8.604;  740.646
355.442;   18.351;   -6.945;  753.071
356.038;   20.875;   -7.564;  751.708
356.633;   20.077;   -5.814;  728.594
357.229;   17.710;   -7.364;  724.757
357.824;   16.201;   -8.024;  703.600
358.420;   15.941;   -9.384;  679.726
359.015;   16.228;   -5.104;  695.357
359.610;   15.961;   -6.854;  763.920
360.206;   10.254;  -10.185;  603.240
360.801;   13.556;   -7.054;  646.503
361.396;   15.834;   -5.034;  725.975
361.992;   11.158;   -8.284;  668.220
362.587;    8.103;   -8.625;  670.160
363.182;   12.163;   -7.674;  689.631
363.777;   10.908;   -5.164;  738.242
364.372;   10.352;   -8.604;  737.314
364.967;    7.074;   -9.055;  680.744
365.563;   11.419;   -6.114;  815.567
366.158;    8.587;   -5.814;  685.161
366.753;    8.083;   -7.854;  649.263
367.348;    7.290;   -7.804;  746.056
367.942;    7.683;   -7.954;  697.298
368.537;    6.224;   -4.984;  754.245
369.132;    5.060;   -8.564;  703.428
369.727;    2.479;   -8.855;  638.079
370.322;    4.138;   -6.245;  580.186
370.917;    3.264;   -6.425;  710.646
371.511;    6.229;   -6.294;  861.834
372.106;    2.237;   -7.685;  776.964
372.701;   -0.136;   -7.335;  585.988
373.296;    4.658;   -4.564;  863.135
373.890;    0.078;  -10.235;  647.840
374.485;   -1.707;   -7.885;  691.199
375.079;    2.813;   -7.324;  738.685
375.674;    3.255;   -3.494;  812.970
376.268;   -1.546;   -8.525;  691.759
376.863;   -6.886;  -10.086;  580.327
377.457;   -0.142;   -7.025;  662.490
378.052;   -1.718;   -3.585;  764.884
378.646;   -3.863;   -7.595;  741.167
379.240;   -3.834;   -8.335;  721.176
379.835;   -2.456;   -5.785;  636.978
380.429;   -4.415;   -4.335;  562.557
381.023;   -5.641;   -6.805;  779.205
381.617;   -7.520;   -9.195;  680.106
382.212;   -3.683;   -6.905;  685.303
382.806;   -2.711;   -3.745;  760.690
383.400;   -8.028;   -7.745;  672.281
383.994;   -8.839;   -9.765;  664.870
384.588;   -3.954;   -6.564;  697.701
385.182;   -2.686;   -5.344;  726.624
385.776;   -5.388;   -8.514;  706.875
386.370;   -8.298;   -9.555;  681.968
386.964;   -6.652;   -8.715;  684.155
387.558;   -4.972;   -6.174;  598.360
388.152;   -9.207;   -8.725;  681.959
388.745;   -7.408;   -7.965;  814.707
389.339;   -4.885;   -5.924;  747.642
389.933;   -4.293;   -5.524;  695.370
390.527;   -5.901;   -7.114;  859.029
391.120;  -11.784;  -10.725;  595.318
391.714;   -7.459;   -8.035;  711.633
392.308;   -5.461;   -3.574;  780.253
392.901;   -9.951;   -7.245;  642.460
393.495;  -11.621;   -9.285;  595.414
394.089;   -8.068;   -5.895;  760.452
394.682;   -9.728;   -4.295;  697.188
395.275;  -10.730;   -9.875;  719.927
395.869;  -11.028;   -8.485;  667.314
396.462;   -9.132;   -7.455;  616.609
397.056;   -6.409;   -5.424;  776.621
397.649;  -10.592;   -6.605;  731.575
398.242;   -8.552;   -8.224;  712.645
398.836;   -6.707;   -7.474;  766.408
399.429;   -8.469;   -7.094;  631.041
400.022;  -12.570;   -9.475;  665.902
400.615;   -9.911;   -7.145;  805.609
401.208;   -6.289;   -7.174;  691.451
401.802;   -9.368;   -5.515;  699.329
402.395;  -11.388;   -9.875;  683.502
402.988;  -12.816;   -8.845;  696.627
403.581;   -7.753;   -8.874;  646.878
404.174;   -6.115;   -5.324;  686.568
404.767;   -9.894;   -9.575;  638.583
405.360;  -12.284;  -10.965;  621.445
405.953;   -5.842;   -8.764;  759.034
406.545;   -5.361;   -7.514;  725.342
407.138;  -10.832;  -10.025;  618.350
407.731;   -8.523;  -10.034;  613.303
408.324;   -4.266;   -9.374;  660.554
408.917;   -4.900;   -6.534;  681.864
409.509;   -7.131;   -8.004;  740.396
410.102;   -9.576;   -9.875;  643.948
410.695;   -3.168;   -8.604;  665.758
411.287;   -4.030;   -6.794;  599.821
411.880;   -6.400;   -9.334;  585.421
412.472;   -8.541;  -10.254;  613.092
413.065;   -4.686;   -6.714;  629.408
413.657;   -3.238;   -7.234;  576.678
414.250;   -3.824;  -10.544;  646.681
414.842;   -5.069;   -9.744;  676.353
415.434;   -2.345;   -6.994;  570.463
416.027;    0.840;   -5.893;  652.196
416.619;   -1.221;   -7.264;  713.400
417.211;   -1.761;  -10.374;  599.352
417.804;    2.629;   -7.993;  628.499
418.396;   -1.718;   -7.234;  607.643
418.988;   -0.230;   -9.443;  659.238
419.580;   -2.974;  -10.724;  568.276
420.172;   -0.110;  -10.323;  536.196
420.764;    3.736;   -8.793;  672.482
421.356;    2.245;  -11.143;  636.898
421.948;    0.662;   -8.293;  677.661
422.540;    6.894;   -7.893;  680.027
423.132;    6.383;   -7.082;  600.641
423.724;    2.043;   -8.653;  561.267
424.316;    4.770;  -10.213;  621.345
424.908;    8.926;   -9.762;  591.517
425.500;    9.248;   -5.572;  647.978
426.092;    8.958;   -8.422;  648.268
426.683;    7.590;   -9.283;  684.836
427.275;   11.583;   -7.852;  641.471
427.867;   13.246;   -5.272;  668.948
428.458;   12.926;   -7.682;  732.344
429.050;   11.085;  -10.612;  680.749
429.642;   14.670;   -9.882;  743.124
430.233;   15.108;   -6.962;  569.356
430.825;   14.907;   -6.842;  724.809
431.416;   12.949;   -9.672;  698.241
432.008;   17.940;   -6.552;  651.723
432.599;   18.266;   -6.891;  656.073
433.190;   13.614;  -10.912;  637.670
433.782;   13.584;  -11.172;  590.395
434.373;   21.559;   -6.061;  884.765
434.964;   20.570;   -8.251;  602.920
435.556;   17.413;   -9.722;  634.537
436.147;   20.349;   -9.082;  758.490
436.738;   21.410;   -8.041;  701.099
437.329;   26.136;   -7.341;  721.723
437.920;   18.723;   -8.162;  666.688
438.511;   18.093;  -11.802;  564.526
439.103;   26.290;  -10.191;  623.998
439.694;   27.309;   -7.601;  681.583
440.285;   27.138;   -8.541;  764.432
440.876;   26.406;   -9.751;  845.738
441.466;   26.671;   -9.401;  575.162
442.057;   30.942;   -7.760;  665.814
442.648;   29.558;   -9.971;  746.255
443.239;   28.220;  -11.001;  620.477
443.830;   34.717;   -7.990;  704.958
444.421;   35.520;   -7.910;  655.474
445.011;   31.054;   -8.131;  693.619
445.602;   31.245;   -7.111;  743.126
446.193;   34.018;  -10.920;  488.117
446.783;   37.747;   -6.500;  640.397
447.374;   32.599;   -8.671;  692.759
447.964;   33.250;  -10.781;  713.770
448.555;   42.702;   -9.650;  822.742
449.145;   38.518;   -8.660;  662.853
449.736;   38.622;   -8.990;  803.179
450.326;   39.712;   -9.500;  713.626
450.917;   45.409;   -8.680;  675.324
451.507;   44.244;   -7.520;  600.661
452.097;   44.678;   -8.590;  746.267
452.688;   45.872;  -11.340;  742.160
453.278;   45.722;  -10.100;  566.840
453.868;   50.579;   -6.019;  793.550
454.458;   47.702;   -9.440;  651.141
455.048;   47.904;  -10.560;  711.783
455.639;   50.387;  -11.799;  567.096
456.229;   53.746;   -6.899;  710.694
456.819;   54.961;   -7.389;  751.158
457.409;   55.451;  -11.119;  773.993
457.999;   59.173;   -9.289;  737.505
458.589;   58.650;   -6.139;  686.606
459.179;   58.273;   -8.729;  717.658
459.769;   56.336;   -9.789;  627.099
460.358;   62.140;  -10.259;  797.262
460.948;   61.848;   -7.299;  689.503
461.538;   63.162;  -10.289;  660.677
462.128;   60.883;  -11.269;  664.934
462.717;   67.958;   -9.368;  710.326
463.307;   71.201;   -7.908;  705.846
463.897;   66.633;   -9.599;  656.942
464.486;   66.313;   -9.769;  837.128
465.076;   71.682;   -8.048;  733.776
465.666;   73.816;   -9.358;  652.900
466.255;   71.225;   -7.919;  785.651
466.845;   70.383;  -11.689;  666.749
467.434;   75.438;   -7.818;  725.873
468.023;   75.472;   -7.678;  658.357
468.613;   71.758;  -10.939;  713.946
469.202;   76.522;  -10.118;  646.507
469.791;   82.405;   -9.108;  737.811
470.381;   84.326;   -6.058;  742.813
470.970;   82.601;  -10.428;  711.099
471.559;   83.389;  -10.268;  733.291
472.148;   87.753;   -8.448;  675.737
472.738;   90.189;   -6.917;  765.466
473.327;   88.223;  -11.978;  637.529
473.916;   87.125;  -11.888;  737.446
474.505;   93.576;   -9.437;  751.703
475.094;   95.270;   -6.747;  806.570
475.683;   94.303;   -9.367;  797.699
476.272;   96.211;  -12.637;  730.632
476.861;   99.369;  -10.027;  706.754
477.449;  105.110;   -8.716;  728.487
478.038;   99.628;   -9.577;  692.513
478.627;  101.006;   -9.718;  714.852
479.216;  108.353;   -8.947;  769.441
479.805;  111.551;   -6.256;  783.375
480.393;  110.501;   -7.937; 1008.945
480.982;  110.554;   -7.717;  874.501
481.571;  117.384;   -9.266;  858.333
482.159;  118.152;   -7.636;  705.386
482.748;  117.225;   -9.667;  821.385
483.336;  122.023;  -10.376;  858.209
483.925;  123.369;   -7.147;  774.373
484.513;  130.610;   -7.996;  758.962
485.102;  126.725;  -10.027;  810.965
485.690;  135.511;  -10.446; 1011.050
486.278;  138.412;   -8.446;  979.329
486.867;  138.510;   -6.356;  809.662
487.455;  140.292;   -9.136;  898.229
488.043;  142.203;  -10.646;  748.361
488.631;  152.842;   -7.456; 1005.079
489.220;  156.406;   -6.636;  908.626
489.808;  155.919;  -11.036;  741.415
490.396;  164.693;  -10.246;  914.645
490.984;  172.956;   -8.556;  830.161
491.572;  184.670;   -5.886;  940.315
492.160;  191.320;   -9.486;  919.081
492.748;  205.413;  -10.976;  884.341
493.336;  231.007;   -8.776; 1019.693
493.924;  260.813;   -5.465;  958.077
494.512;  294.270;   -9.986; 1066.638
495.100;  344.801;  -10.636; 1103.280
495.687;  412.053;  -10.885; 1206.373
496.275;  475.301;   -8.126; 1150.796
496.863;  546.137;  -10.586; 1281.171
497.451;  665.897;  -11.926; 1386.805
498.038;  780.494;  -10.885; 1556.729
498.626;  892.910;   -6.315; 1741.407
499.214; 1067.067;   -7.326; 2016.609
499.801; 1280.092;  -11.906; 2220.633
500.389; 1524.405;  -10.466; 2312.494
500.976; 1824.224;   -5.236; 2744.849
501.564; 2293.716;   -8.936; 3148.565
502.151; 2812.810;  -13.176; 3515.999
502.738; 3312.116;  -10.646; 3971.274
503.326; 3727.677;   -9.525; 4403.796
503.913; 4119.945;  -10.856; 5161.749
504.500; 4658.197;  -11.586; 5986.420
505.088; 5109.974;  -10.336; 6381.201
505.675; 5535.910;   -6.355; 6925.547
506.262; 6019.192;   -9.046; 7619.060
506.849; 6417.871;  -10.416; 8733.969
507.436; 6896.465;  -10.305; 9790.121
508.023; 7416.424;   -5.496; 9985.472
508.610; 8312.251;   -7.856;10434.618
509.197;10043.830;  -10.097;11198.435
509.784;11686.789;  -10.886;12391.194
510.371;12754.891;   -9.315;13603.713
510.958;13558.228;   -9.936;14426.586
511.545;14056.029;   -9.326;15243.775
512.132;14979.605;  -10.075;15945.876
512.719;15532.416;   -7.796;16340.369
513.305;16783.516;  -10.606;18011.766
513.892;18159.174;  -11.486;19754.971
514.479;19999.658;   -9.126;20967.805
515.066;21291.814;   -6.026;22299.793
515.652;21616.795;   -8.466;22908.660
516.239;23069.322;  -10.886;23798.875
516.825;25286.285;  -11.496;25567.275
517.412;26671.328;   -5.796;28154.959
517.998;28285.512;  -10.506;28344.111
518.585;28602.480;  -10.076;27134.219
519.171;27668.096;   -8.315;27268.576
519.758;27421.313;   -8.596;28964.129
520.344;28287.020;   -8.466;30664.494
520.930;31616.346;  -11.006;32550.605
521.516;32174.602;  -10.495;35422.895
522.103;31644.670;   -5.526;38280.004
522.689;32483.834;   -8.746;37835.117
523.275;34801.320;  -11.376;37288.613
523.861;37016.684;  -11.156;37281.395
524.447;39782.371;   -8.135;37846.949
525.033;40583.504;   -7.896;38321.949
525.619;39938.063;  -12.476;38579.285
526.205;40191.852;   -9.516;40622.875
526.791;39475.008;   -6.926;42258.836
527.377;41612.563;   -8.346;42966.902
527.963;43660.605;   -8.717;42018.949
528.549;42016.266;  -11.016;42476.828
529.135;41723.441;   -8.536;41854.852
529.721;40874.980;   -9.666;41237.711
530.306;39053.152;  -10.066;41259.445
530.892;39519.395;  -11.356;41506.047
531.478;40093.563;   -6.596;43559.613
532.063;40667.016;   -8.836;47695.563
532.649;43951.391;  -10.047;50808.324
533.235;46309.652;   -9.746;51787.500
533.820;45486.875;   -6.566;52145.035
534.406;44426.125;  -10.817;51133.488
534.991;47229.289;   -9.416;49996.805
535.576;48286.813;   -9.036;48882.852
536.162;48969.582;   -6.156;46942.285
536.747;49276.223;  -11.607;45711.746
537.333;48805.086;  -11.787;48510.180
537.918;47889.992;  -12.437;50439.891
538.503;47787.375;   -7.196;50863.711
539.088;46479.996;  -10.556;50906.922
539.673;46604.836;   -8.767;52621.965
540.259;48051.621;  -10.026;52368.094
540.844;49781.207;   -7.416;50879.109
541.429;48311.227;   -9.467;52077.777
542.014;48548.250;   -9.527;52716.695
542.599;51290.688;   -9.946;52363.281
543.184;53246.141;   -7.927;53187.137
543.769;51797.910;   -9.297;54697.605
544.354;48216.941;  -10.127;53913.914
544.938;45570.340;   -9.267;49680.164
545.523;47700.402;   -6.506;47386.277
546.108;52914.152;   -9.787;49151.949
546.693;53428.750;  -11.587;51384.637
547.278;53526.961;  -10.986;51853.254
547.862;49385.160;   -8.206;51173.750
548.447;45877.555;  -10.067;51691.395
549.031;48233.309;   -9.637;52456.703
549.616;50669.422;   -9.926;52714.516
550.201;48389.406;   -6.347;52414.598
550.785;45665.387;   -7.917;52355.059
551.370;43764.645;  -10.867;54589.453
551.954;45222.516;   -9.047;58267.348
552.538;48348.512;   -7.827;59062.176
553.123;48102.855;  -10.287;58115.285
553.707;44173.195;  -12.178;56556.285
554.291;45734.039;   -8.717;56201.668
554.876;48425.379;   -7.457;55335.762
555.460;49966.629;  -10.387;54155.703
556.044;50603.750;   -9.618;53721.484
556.628;50375.449;  -11.567;53731.016
557.212;49517.656;   -8.097;54312.531
557.796;49277.285;  -11.077;53797.773
558.380;47154.359;  -11.108;56145.984
558.964;44703.625;   -9.057;57277.930
559.548;44511.582;   -6.977;56459.641
560.132;44751.457;  -11.457;54434.543
560.716;42633.984;  -11.378;54800.617
561.300;43554.215;   -9.577;57606.945
561.884;46201.496;   -7.127;58972.445
562.467;47169.313;   -7.118;57327.570
563.051;47645.320;  -13.358;54962.434
563.635;45700.219;  -10.178;52594.473
564.219;45522.746;   -7.837;50610.410
564.802;44993.422;  -11.398;49551.180
565.386;46382.949;  -12.788;48370.953
565.969;46138.867;   -9.077;48178.871
566.553;45346.336;   -6.207;49957.305
567.136;43122.043;   -8.568;50369.594
567.720;42407.684;  -11.868;49492.004
568.303;43363.227;   -8.268;50616.352
568.887;42260.852;   -8.698;50727.148
569.470;41047.676;   -6.808;51698.379
570.053;39610.855;  -13.188;52122.078
570.637;37608.359;  -12.037;52536.438
571.220;36995.039;   -8.577;51186.098
571.803;38453.297;   -8.498;51032.762
572.386;40369.141;  -10.498;49609.887
572.969;41463.082;   -9.388;48285.926
573.552;37593.965;   -8.338;47624.285
574.135;36371.121;   -8.518;45498.641
574.718;34878.105;  -13.628;41970.434
575.301;33473.398;  -10.893;41447.137
575.884;32068.691;   -8.158;40923.836
576.467;35913.535;  -10.328;45267.723
577.050;35177.180;  -13.058;48175.543
577.633;33775.387;   -9.458;47729.328
578.216;34509.855;   -8.928;47579.793
578.799;35543.066;   -9.358;47820.996
579.381;35650.520;  -11.388;48115.551
579.964;33743.148;  -11.718;47333.766
580.547;34384.316;   -8.588;46668.969
581.129;35965.555;   -8.859;44466.141
581.712;35227.172;  -10.729;44164.922
582.294;36641.254;  -11.118;46477.855
582.877;34627.066;   -5.218;48244.254
583.459;34298.320;   -8.679;47437.895
584.042;35495.137;  -10.709;46943.219
584.624;38685.441;  -11.669;46792.227
585.206;38579.512;   -8.218;46557.250
585.789;36280.000;  -10.569;45793.773
586.371;35413.551;  -11.859;43836.391
586.953;34170.930;  -10.719;42972.492
587.536;35377.008;   -7.198;42487.211
588.118;37285.117;   -8.720;42086.414
588.700;36815.953;  -10.439;43389.930
589.282;36019.203;   -9.198;43646.039
589.864;35613.813;   -9.199;43438.109
590.446;33481.070;  -11.319;43151.926
591.028;32302.254;  -11.159;42781.867
591.610;31644.752;  -11.779;42839.098
592.192;28858.807;   -7.668;42820.402
592.774;30011.773;  -11.949;40724.277
593.356;31571.883;  -12.129;39874.789
593.937;31427.211;  -10.669;39980.648
594.519;32657.629;   -6.509;42069.633
595.101;34602.359;  -10.849;42976.031
595.683;33527.801;  -11.679;44084.441
596.264;31552.645;   -9.049;43478.797
596.846;32273.760;   -8.849;43803.672
597.427;33285.766;   -9.570;42986.934
598.009;33317.004;  -12.620;42832.219
598.591;32800.316;  -10.039;42580.086
599.172;32504.984;  -10.369;43061.805
599.753;32041.678;   -9.140;41691.469
600.335;31956.693;  -11.430;40692.520
600.916;32670.168;   -9.939;39982.422
601.498;31947.369;   -8.479;40318.617
602.079;30659.172;  -10.920;40670.609
602.660;32054.428;  -11.480;41450.898
603.241;32896.180;  -11.699;41137.738
603.823;33265.621;   -9.579;38868.797
604.404;33366.863;  -10.620;38182.785
604.985;31884.568;  -10.450;38078.047
605.566;31046.471;   -9.129;38056.633
606.147;30974.018;   -7.510;37020.418
606.728;32157.750;  -10.660;37883.359
607.309;32866.211;  -11.740;38748.273
607.890;31622.123;   -9.759;38850.230
608.471;30203.416;   -8.250;37457.918
609.051;31723.008;   -9.240;36066.457
609.632;30058.188;  -12.120;35991.074
610.213;27911.631;   -9.110;37402.641
610.794;28929.273;   -8.030;38383.363
611.374;31709.447;   -8.110;40562.387
611.955;32393.463;  -13.560;38533.727
612.536;30166.238;  -11.400;36951.789
613.116;29616.348;   -8.070;37197.891
613.697;31360.680;  -10.830;38411.125
614.277;31803.877;  -11.641;38673.938
614.858;30762.678;  -13.310;37075.863
615.438;29534.076;   -7.460;35092.906
616.019;28613.768;   -7.601;33666.301
616.599;29175.256;  -12.020;34189.023
617.179;30745.406;  -11.780;36952.047
617.760;33108.734;   -8.570;39582.574
618.340;33082.285;  -11.471;38943.977
618.920;30698.992;  -11.170;37594.156
619.500;31943.736;  -11.071;37866.938
620.080;32502.807;   -7.750;37869.043
620.660;31682.770;  -12.711;36868.617
621.241;31031.398;  -10.211;36352.309
621.821;29968.693;  -10.961;35459.520
622.401;28531.604;   -7.720;35207.414
622.980;29603.402;   -8.981;35980.422
623.560;30249.211;   -9.331;37351.328
624.140;28980.998;   -9.850;34388.582
624.720;26409.488;   -7.451;32368.764
625.300;24762.877;   -9.070;32638.629
625.880;28370.031;  -12.601;34599.035
626.459;31258.818;  -11.751;36831.738
627.039;31986.457;   -9.281;38299.098
627.619;33491.477;   -8.801;38289.574
628.198;33541.816;  -12.071;37220.695
628.778;31561.877;   -9.461;37632.563
629.357;31922.912;   -8.491;38003.012
629.937;31934.023;   -9.721;38402.039
630.516;31824.537;   -9.951;37868.801
631.096;31571.871;  -11.731;35760.410
631.675;33357.109;   -8.572;35225.219
632.254;33428.922;  -11.282;35130.289
632.834;32937.016;  -13.322;35794.570
633.413;33286.668;  -10.301;35788.922
633.992;32853.133;   -8.582;34532.863
634.571;33403.930;   -8.352;33590.113
635.151;32753.676;  -11.912;34943.863
635.730;31568.982;  -10.511;35352.523
636.309;33178.117;   -7.731;35366.605
636.888;32722.145;   -9.952;36165.637
637.467;31999.467;  -11.672;37515.902
638.046;31488.068;   -8.901;39288.695
638.625;31831.574;   -7.912;38279.699
639.204;32320.822;  -10.022;37741.598
639.782;31061.797;  -12.252;38364.551
640.361;29380.617;  -10.041;36740.621
640.940;28241.213;  -11.161;34950.082
641.519;29851.939;   -9.701;34137.398
642.097;32483.291;  -11.271;35654.258
642.676;33359.113;   -8.651;35637.957
643.255;34903.359;   -8.711;36567.074
643.833;33078.191;   -9.581;37809.434
644.412;29939.482;  -13.711;37337.293
644.990;30296.832;  -11.811;37018.531
645.569;32521.318;   -9.411;36518.469
646.147;32031.738;  -10.291;36186.430
646.726;30862.738;  -12.401;36267.688
647.304;30392.184;  -10.411;36647.625
647.882;30667.738;   -9.651;39286.742
648.461;32141.979;   -9.631;39157.703
649.039;34895.297;  -11.881;35412.883
649.617;35970.914;   -9.661;34744.918
650.195;34158.430;   -9.301;35403.098
650.773;32384.277;  -10.511;35053.797
651.352;31046.391;  -11.521;33756.816
651.930;28284.816;  -12.211;31868.773
652.508;24972.453;   -9.171;33121.551
653.086;25957.115;   -9.371;33564.793
653.663;31004.932;  -13.161;34054.668
654.241;33279.438;  -13.031;35693.309
654.819;35019.770;   -9.371;36422.906
655.397;35202.680;  -10.511;38213.484
655.975;33251.590;  -10.371;39507.625
656.553;31833.861;  -10.051;39498.223
657.130;31206.277;  -10.061;40395.480
657.708;29543.469;   -9.561;39242.020
658.286;26208.977;  -11.511;38920.020
658.863;26397.656;  -10.261;40202.898
659.441;30535.264;   -7.531;39677.938
660.018;32569.508;   -9.501;40413.355
660.596;31392.178;  -13.301;39931.414
661.173;29538.037;  -11.211;39604.531
661.750;30729.244;   -9.951;39700.070
662.328;31057.037;   -9.390;39292.809
662.905;30016.289;  -11.330;38235.648
663.482;27113.785;   -9.050;36212.305
664.060;24645.795;   -8.240;35944.945
664.637;26193.980;  -10.050;35170.785
665.214;29393.229;  -11.760;34197.523
665.791;30680.760;  -10.530;34549.520
666.368;29945.973;   -9.690;35118.578
666.945;30581.215;   -9.320;36019.418
667.522;30250.797;  -11.860;36048.438
668.099;31490.564;  -10.770;36243.914
668.676;32628.316;   -6.260;35958.875
669.253;34778.313;   -7.000;37384.730
669.830;35977.727;  -10.190;36779.629
670.407;32946.980;   -9.550;35231.289
670.984;32529.852;   -9.260;35544.270
671.560;29521.918;   -9.280;35466.867
672.137;24206.672;  -11.810;34280.863
672.714;25437.273;  -11.490;34632.863
673.290;31156.701;   -7.740;35135.422
673.867;31749.201;  -10.660;36114.480
674.443;31529.773;  -12.230;36152.859
675.020;30923.918;  -10.450;35327.238
675.596;31252.297;   -9.260;35795.176
676.173;31232.703;  -10.780;35430.355
676.749;29904.064;  -13.690;33549.516
677.326;29119.953;  -11.980;32210.012
677.902;28321.771;   -8.630;32068.871
678.478;29311.490;  -10.730;32583.891
679.054;30189.338;  -10.520;32088.928
679.631;30496.918;  -11.920;30978.848
680.207;30601.670;   -7.490;33160.887
680.783;32250.201;   -9.860;35570.363
681.359;33109.746;  -13.380;36125.184
681.935;32926.055;  -12.480;35240.922
682.511;31459.848;   -7.900;34429.961
683.087;30776.215;   -7.710;34463.680
683.663;30362.631;  -11.480;34648.898
684.239;29579.752;  -14.090;34546.457
684.815;28842.395;   -7.560;35586.375
685.390;29084.902;   -9.910;35821.895
685.966;30154.680;  -11.159;35085.871
686.542;30927.838;  -11.169;34198.230
687.118;32197.641;   -5.959;32847.707
687.693;31613.514;  -10.329;32794.027
688.269;31503.359;  -12.059;33072.367
688.844;32762.250;  -10.909;33141.664
689.420;31783.146;   -8.019;33965.742
689.995;30243.633;   -8.399;34655.523
690.571;31108.461;  -10.949;33576.742
691.146;30687.178;   -9.619;32657.219
691.722;29204.398;   -8.999;32526.979
692.297;27876.656;  -11.589;33014.617
692.872;28247.549;  -11.739;34012.254
693.448;31369.664;  -11.059;34237.434
694.023;31661.588;  -10.139;34142.672
694.598;28047.137;   -9.029;34132.031
695.173;28957.227;  -13.319;34205.250
695.748;30532.982;  -10.169;32882.488
696.323;28764.406;   -8.339;32864.906
696.898;27565.068;   -8.169;33170.004
697.473;27616.619;  -12.309;32432.984
698.048;27579.104;  -10.989;31649.303
698.623;27231.838;   -9.329;30778.141
699.198;28102.316;   -9.849;31140.119
699.773;28809.326;  -12.329;31764.299
700.348;30330.822;  -10.389;31780.816
700.922;30048.729;   -9.269;32046.375
701.497;30553.434;   -9.329;32603.574
702.072;31888.807;  -10.789;34799.871
702.646;30842.508;  -10.839;35793.172
703.221;31163.031;   -9.099;35201.590
703.795;32973.371;  -10.939;34764.527
704.370;30600.455;  -12.859;34307.367
704.944;28709.699;  -11.559;33509.887
705.519;29081.068;   -7.939;31388.584
706.093;30887.584;  -10.499;31340.104
706.668;32802.449;  -11.289;32630.281
707.242;32416.539;  -11.509;32728.779
707.816;29654.012;   -9.639;32947.238
708.390;28832.879;  -11.429;33277.855
708.965;29305.871;  -11.869;33834.336
709.539;31353.510;  -11.689;33709.273
710.113;31167.867;  -10.478;33044.313
710.687;29831.504;  -10.228;31953.992
711.261;28780.238;  -13.698;30505.949
711.835;29137.992;  -13.378;30262.369
712.409;28766.814;   -9.698;31254.447
712.983;27418.203;  -11.898;32754.986
713.557;29277.414;  -15.138;34018.824
714.131;28069.938;  -14.098;34579.625
714.704;27846.225;   -9.958;33890.262
715.278;29221.646;  -10.028;33531.102
715.852;27909.406;  -11.148;33601.660
716.425;27132.744;   -9.068;33515.117
716.999;26382.271;  -10.038;33185.555
717.573;25905.145;   -9.798;33905.996
718.146;25347.473;  -12.378;35199.293
718.720;25366.295;  -11.918;35060.551
719.293;25971.385;   -8.088;34973.230
719.867;28419.227;  -10.888;36394.449
720.440;31043.109;  -11.938;36663.008
721.013;31442.805;  -12.818;35102.426
721.587;28811.939;  -10.298;33985.266
722.160;27273.982;  -10.048;33524.965
722.733;26243.594;  -12.108;32987.043
723.306;25977.301;  -10.818;33066.301
723.880;27386.867;   -8.908;33399.500
724.453;26368.414;   -9.878;33468.297
725.026;26930.055;  -11.188;33816.637
725.599;30735.145;  -11.678;32797.996
726.172;30537.971;   -9.618;33187.434
726.745;27228.598;   -8.258;35136.613
727.318;26352.574;  -12.978;35751.730
727.891;26117.832;  -12.148;35890.430
728.463;25930.678;   -8.968;34822.090
729.036;25437.490;  -10.188;32895.086
729.609;25625.314;  -11.788;31823.225
730.182;24291.564;  -11.788;31445.283
730.754;22593.383;  -10.268;32373.223
731.327;22212.141;   -9.998;33676.820
731.900;23415.412;  -12.228;33417.000
732.472;24376.773;  -13.848;31978.498
733.045;24101.049;   -8.698;30368.777
733.617;22696.535;  -10.607;30574.215
734.190;24121.242;  -11.507;31280.975
734.762;25437.246;  -13.647;31674.412
735.334;25297.918;   -9.767;31247.291
735.907;25254.805;   -9.897;29876.211
736.479;25302.510;  -11.637;29808.488
737.051;27141.637;   -9.567;30233.547
737.623;27542.656;   -8.187;31469.086
738.195;26492.039;  -11.187;31784.225
738.768;25073.191;  -12.337;32120.523
739.340;22892.367;  -12.227;32094.342
739.912;21885.574;  -11.057;31312.680
740.484;21292.711;  -10.207;31946.238
741.056;20668.670;  -10.047;32984.059
741.628;21708.822;  -13.627;33897.715
742.199;23629.047;   -7.177;33213.016
742.771;26536.156;  -10.797;31369.113
743.343;27997.711;  -11.997;31865.473
743.915;27491.689;  -12.867;32388.631
744.487;24470.316;   -7.617;31079.568
745.058;21261.850;   -9.557;30570.107
745.630;21592.525;   -9.877;29970.127
746.201;23021.857;  -14.177;29186.766
746.773;23545.535;   -9.237;28805.723
747.344;22694.092;   -9.847;29591.223
747.916;21332.057;  -11.657;31412.201
748.487;21670.266;  -10.587;32194.898
749.059;22910.586;   -8.707;32533.719
749.630;23452.479;  -10.537;32158.518
750.201;22956.984;  -11.687;30855.395
750.773;21708.703;  -11.647;28622.555
751.344;20896.717;   -7.147;28405.732
751.915;22130.912;   -9.757;28461.551
752.486;23478.826;  -12.427;27842.850
753.057;22800.975;  -12.227;27845.008
753.628;22752.365;  -10.417;27728.107
754.199;21736.578;  -11.767;27381.086
754.770;21673.736;  -11.187;25882.203
755.341;21627.135;  -10.507;25886.184
755.912;20223.857;   -9.387;26050.861
756.483;18465.764;  -10.647;26798.779
757.054;18837.703;  -11.837;27048.238
757.625;18941.061;  -12.716;26294.838
758.195;19025.949;   -9.666;26142.076
758.766;19598.395;   -8.656;26392.234
759.337;19014.197;  -12.856;26334.594
759.907;19047.768;  -13.366;27579.652
760.478;18966.602;   -8.576;28352.770
761.048;19437.549;  -10.526;27325.088
761.619;19548.627;  -11.116;26460.428
762.189;18179.865;  -12.136;26029.826
762.760;17710.537;   -9.456;26430.145
763.330;18171.568;   -7.136;26670.902
763.900;18533.088;  -11.786;26603.021
764.471;17881.275;  -11.546;25542.740
765.041;16828.756;   -8.096;24358.459
765.611;16204.041;   -8.876;23991.297
766.181;16114.921;  -12.196;24470.236
766.751;15921.797;  -11.636;24845.975
767.321;16382.899;  -10.156;24533.633
767.891;16289.945;  -11.766;24916.492
768.461;16654.096;  -14.936;24776.771
769.031;17840.072;  -12.356;24757.988
769.601;18411.678;   -7.526;24181.088
770.171;17995.525;  -10.766;23670.387
770.741;16847.313;  -13.176;22960.045
771.311;16390.088;  -10.616;22917.523
771.880;16539.043;   -9.576;23562.941
772.450;16110.717;  -10.336;24216.500
773.020;16091.503;  -13.516;24140.398
773.589;16960.055;  -13.466;24414.857
774.159;16621.420;   -8.686;23858.717
774.729;15681.719;   -9.476;22942.135
775.298;14134.757;  -13.666;22324.033
775.867;13683.464;  -11.716;21140.313
776.437;14025.308;   -9.906;20838.092
777.006;13225.063;  -12.166;20599.510
777.576;12541.276;  -12.356;20508.809
778.145;12672.040;  -11.646;20732.947
778.714;12933.694;   -8.226;21062.465
779.283;13626.103;   -9.556;20949.664
779.853;14260.733;  -14.116;20508.623
780.422;13788.131;  -11.506;20649.082
780.991;13346.426;   -9.556;21527.520
781.560;13029.973;   -9.095;22632.658
782.129;12626.563;  -12.135;23048.277
782.698;12618.156;  -10.865;23438.555
783.267;12541.639;   -9.335;23267.734
783.836;12671.611;  -11.045;22415.133
784.404;13404.110;  -13.865;20443.152
784.973;12922.690;  -13.095;19699.150
785.542;11697.526;  -11.575;19763.828
786.111;11064.790;   -9.705;20341.408
786.679;11587.268;  -12.105;20207.967
787.248;11822.195;  -12.455;19516.465
787.817;11166.330;  -11.535;18900.363
788.385;11263.036;   -9.765;17879.121
788.954;11638.848;  -14.005;17658.301
789.522;11297.977;  -11.955;17788.879
790.090;11366.038;  -10.135;18118.277
790.659;12405.146;  -10.975;18338.736
791.227;12581.604;  -13.375;18508.615
791.795;11959.220;  -12.375;17898.254
792.364;11408.766;  -10.725;17295.133
792.932;11346.305;   -9.715;16822.051
793.500;11375.264;  -12.675;17040.148
794.068;11015.127;  -13.495;17179.787
794.636; 9854.184;  -10.885;16664.246
795.204; 8808.107;  -11.045;16524.545
795.772; 9373.127;  -13.175;17274.564
796.340;10722.341;  -12.445;17891.002
796.908;10550.087;   -9.735;17648.561
797.476;10545.341;   -9.815;17064.080
798.044;11076.951;  -13.985;16672.777
798.612;10928.432;  -13.115;17023.996
799.180; 9872.509;  -10.185;16561.615
799.747; 8752.568;   -9.055;15962.773
800.315; 7981.659;  -12.385;15296.992
800.883; 8265.163;  -15.035;14801.771
801.450; 8914.297;  -10.365;14534.430
802.018; 9253.374;   -9.855;14173.248
802.585; 9626.808;  -11.905;14029.547
803.153; 9292.050;  -11.585;13836.846
803.720; 8505.998;   -9.095;13567.324
804.287; 8596.028;   -9.135;13360.622
804.855; 9205.131;  -11.604;13681.981
805.422; 9278.373;  -11.794;13536.560
805.989; 8804.622;  -10.734;13355.958
806.556; 8255.765;  -10.444;13747.896
807.124; 8096.707;  -12.764;13987.376
807.691; 8665.961;  -12.964;14038.674
808.258; 8992.857;  -11.134;14120.152
808.825; 8986.434;   -9.854;13860.111
809.392; 8570.596;  -10.504;13268.790
809.959; 8047.861;  -13.054;12680.389
810.526; 7771.710;   -8.294;12427.308
811.093; 7611.875;   -8.394;12030.105
811.659; 7110.253;  -12.304;11653.664
812.226; 6855.778;  -13.944;11637.183
812.793; 7328.150;  -10.484;11611.521
813.360; 7569.491;  -10.144;11885.181
813.926; 7046.950;  -11.684;12770.539
814.493; 6372.255;  -13.644;12677.638
815.060; 6171.533;   -9.724;11974.336
815.626; 6396.431;   -9.854;11594.715
816.193; 6445.357;  -13.254;11579.474
816.759; 6380.093;  -13.204;11666.972
817.325; 6324.855;   -9.434;11325.530
817.892; 6143.231;  -10.134;11105.369
818.458; 6073.768;  -13.474;10843.928
819.024; 5842.882;  -11.854;10714.406
819.591; 5903.176;  -10.244;10469.165
820.157; 6061.968;  -10.704;10235.523
820.723; 6397.673;  -12.324;10847.563
821.289; 6851.104;   -9.444;11040.980
821.855; 6915.760;   -8.374;10357.100
822.421; 6594.678;  -10.234; 9978.918
822.987; 6362.456;  -13.294; 9754.177
823.553; 6362.546;  -10.884;10065.755
824.119; 6066.277;   -8.884;10036.294
824.685; 5884.257;   -6.784;10029.192
825.251; 5808.377;  -12.004;10199.230
825.816; 6024.659;  -11.474; 9820.189
826.382; 5949.342;   -9.174; 9297.248
826.948; 5568.643;   -9.214; 9381.347
827.513; 5207.501;  -10.774; 9450.726
828.079; 5103.481;  -11.924; 9472.444
828.645; 5085.653;  -10.543; 9292.643
829.210; 5079.495;  -10.533; 9065.341
829.776; 5078.731;  -10.753; 9132.620
830.341; 5112.694;  -10.173; 9092.878
830.906; 5288.711;  -10.743; 9078.557
831.472; 5335.802;  -11.113; 8534.535
832.037; 4908.718;  -10.603; 8677.874
832.602; 4727.227;  -13.323; 8628.692
833.167; 5015.852;  -10.823; 8879.031
833.733; 5008.735;  -10.113; 9189.790
834.298; 4853.422;  -13.583; 9052.608
834.863; 4753.833;  -12.703; 8895.087
835.428; 4584.861;  -10.523; 8824.266
835.993; 4422.151;   -6.963; 8845.385
836.558; 4417.366;  -10.763; 8888.563
837.123; 4551.588;   -9.903; 8966.582
837.688; 4466.657;   -9.913; 8617.860
838.253; 4399.544;  -10.283; 8590.699
838.817; 4580.557;  -12.963; 8443.797
839.382; 4774.396;  -14.243; 8799.356
839.947; 4577.505;  -10.733; 8810.595
840.511; 4484.310;   -9.383; 8796.394
841.076; 4545.945;  -12.563; 8347.231
841.641; 4392.890;  -12.953; 8224.330
842.205; 4072.734;   -7.043; 8223.349
842.770; 3995.435;   -8.163; 8622.107
843.334; 4086.254;  -12.503; 8410.386
843.898; 4148.633;  -11.693; 8337.465
844.463; 4081.875;  -10.203; 8506.283
845.027; 3970.537;   -9.533; 8280.962
845.591; 4026.338;  -13.443; 8231.141
846.156; 3979.141;  -13.143; 7969.179
846.720; 3740.241;   -9.433; 7768.278
847.284; 3338.273;  -11.033; 7630.957
847.848; 3153.167;  -10.403; 7472.395
848.412; 3279.476;  -11.553; 7437.394
848.976; 3530.026;   -8.393; 7674.592
849.540; 3636.262;   -8.713; 7836.011
850.104; 3599.836;  -12.463; 7913.669
850.668; 3643.970;  -12.973; 7694.508
851.232; 3623.215;  -10.793; 7756.887
851.796; 3547.110;  -10.662; 7926.545
852.359; 3595.438;  -13.082; 7827.844
852.923; 3393.220;  -12.192; 7641.163
853.487; 3248.406;  -11.912; 7342.501
854.050; 3371.068;  -10.892; 7042.820
854.614; 3333.556;  -13.992; 7151.338
855.177; 3172.930;  -11.732; 7105.077
855.741; 3109.481;   -8.962; 6989.675
856.304; 3084.826;   -9.442; 6596.634
856.868; 2913.415;  -14.192; 6356.272
857.431; 2745.536;  -12.702; 6468.571
857.995; 2819.887;   -9.942; 6373.210
858.558; 2857.798;   -9.112; 6324.448
859.121; 2601.558;  -12.932; 6408.327
859.684; 2397.781;  -13.442; 6347.886
860.247; 2675.817;  -10.632; 6321.264
860.810; 3069.418;  -11.272; 6301.903
861.374; 3158.486;   -9.832; 6607.881
861.937; 3152.549;  -11.762; 6408.200
862.500; 3086.264;   -9.722; 6572.639
863.062; 2784.102;  -10.512; 6387.297
863.625; 2560.864;  -11.232; 6190.836
864.188; 2483.859;  -14.112; 5807.254
864.751; 2435.787;  -11.302; 5682.413
865.314; 2564.764;  -10.112; 5547.492
865.876; 2741.844;  -12.182; 5500.150
866.439; 2787.192;  -10.722; 5415.909
867.002; 2680.832;   -9.252; 5501.567
867.564; 2544.314;   -9.572; 5413.946
868.127; 2398.772;  -13.142; 5160.325
868.689; 2123.393;  -12.902; 5133.183
869.252; 1928.282;   -9.732; 5252.382
869.814; 1914.832;   -9.432; 5297.141
870.377; 2064.441;  -11.552; 5390.919
870.939; 2103.583;   -9.052; 5599.898
871.501; 2023.771;  -10.982; 5248.336
872.063; 2049.467;  -12.292; 4854.235
872.626; 2017.662;  -14.912; 4817.074
873.188; 1997.311;  -13.112; 4987.732
873.750; 1955.274;  -13.442; 4868.651
874.312; 1968.736;   -9.402; 4779.330
874.874; 2082.832;  -11.062; 4866.348
875.436; 2025.990;  -13.931; 4718.887
875.998; 1770.139;   -9.561; 4660.005
876.560; 1588.152;  -11.321; 4462.964
877.122; 1572.090;  -12.221; 4145.042
877.683; 1551.128;  -12.191; 4056.481
878.245; 1617.327;  -12.101; 3950.740
878.807; 1754.921;   -8.971; 4058.958
879.369; 1789.786;  -12.071; 3954.677
879.930; 1720.297;  -14.621; 3941.495
880.492; 1585.405;  -10.311; 4067.014
881.053; 1436.726;  -10.901; 3859.633
881.615; 1387.079;  -14.411; 3776.071
882.176; 1397.578;  -13.761; 3734.750
882.738; 1420.584;   -9.181; 3678.489
883.299; 1387.903;  -11.791; 3405.407
883.860; 1305.210;  -13.121; 3351.106
884.422; 1205.301;  -11.211; 3394.044
884.983; 1145.832;  -10.091; 3166.443
885.544; 1128.857;   -8.461; 3189.802
886.105; 1082.483;  -12.361; 3160.360
886.666; 1020.900;  -14.141; 3093.059
887.227; 1000.215;  -11.361; 2941.957
887.788; 1012.438;  -11.401; 2974.836
888.349;  973.872;  -13.791; 2721.214
888.910;  883.595;  -13.191; 2696.493
889.471;  786.780;   -9.881; 2560.172
890.032;  712.195;   -9.881; 2558.190
890.593;  701.047;  -10.371; 2567.669
891.153;  704.095;  -13.301; 2460.307
891.714;  647.510;  -11.431; 2372.046
892.275;  596.303;  -11.291; 2309.505
892.835;  595.433;  -11.471; 2382.543
893.396;  587.296;  -11.541; 2295.502
893.956;  565.198;  -11.181; 2162.420
894.517;  530.783;  -11.741; 2125.439
895.077;  477.608;  -11.671; 2086.978
895.638;  434.938;  -11.311; 2126.316
896.198;  421.061;   -9.831; 1838.275
896.758;  418.146;   -8.421; 1892.813
897.319;  407.197;  -12.351; 1792.232
897.879;  389.151;  -13.511; 1762.751
898.439;  366.440;  -12.001; 1661.149
898.999;  345.950;  -10.180; 1781.468
899.559;  331.294;  -12.030; 1703.347
900.119;  326.592;  -15.710; 1537.525
900.679;  315.053;   -8.900; 1638.384
901.239;  288.485;   -8.340; 1527.902
901.799;  268.586;  -13.910; 1456.441
902.359;  258.903;  -13.460; 1357.140
902.919;  255.364;  -11.490; 1331.118
903.479;  251.401;  -12.110; 1317.257
904.038;  243.574;  -11.720; 1262.595
904.598;  228.827;  -13.610; 1152.034
905.158;  217.011;  -11.040; 1240.893
905.717;  209.446;  -10.900; 1233.691
906.277;  205.079;  -15.080; 1217.330
906.836;  203.040;  -13.380; 1222.408
907.396;  199.910;  -10.780; 1193.047
907.955;  194.627;   -8.500; 1182.526
908.515;  186.117;  -12.760; 1099.364
909.074;  183.227;  -11.900; 1092.863
909.633;  181.217;   -8.950; 1069.121
910.192;  177.694;   -8.770; 1196.460
910.752;  171.654;  -12.390; 1029.960
911.311;  168.246;  -13.680; 1009.780
911.870;  164.423;  -12.370;  971.460
912.429;  161.304;  -10.900; 1094.080
912.988;  157.703;  -11.690; 1081.060
913.547;  155.310;  -13.240;  940.380
914.106;  155.268;  -11.990;  999.420
914.665;  153.536;   -9.990;  984.020
915.224;  151.329;  -12.880; 1035.760
915.782;  151.093;  -12.350;  922.560
916.341;  153.275;   -9.110; 1049.840
916.900;  149.035;   -9.270;  925.260
917.458;  146.945;  -13.240;  884.220
918.017;  144.618;  -13.550;  942.600
918.576;  145.384;  -12.320;  904.440
919.134;  143.885;  -11.490;  837.980
919.693;  141.318;  -13.670;  893.060
920.251;  140.750;  -15.470;  876.500
920.809;  140.653;  -11.290;  839.580
921.368;  140.052;  -10.210;  885.360
921.926;  137.754;  -12.140;  842.940
922.484;  137.879;  -13.080;  903.360
923.042;  138.745;  -11.720;  880.340
923.601;  140.002;   -7.480;  998.680
924.159;  137.768;  -11.570;  935.560
924.717;  137.273;  -13.840;  841.080
925.275;  139.914;  -10.640;  903.240
925.833;  137.978;  -11.540;  779.320
926.391;  138.047;  -12.960;  938.380
926.949;  138.030;  -14.130;  857.680
927.506;  139.396;  -11.750;  903.500
928.064;  137.914;  -10.250;  877.580
928.622;  135.722;  -13.030;  880.100
929.180;  137.677;  -13.400;  814.180
929.737;  140.237;  -10.700;  808.540
930.295;  140.008;  -10.070;  928.480
930.853;  139.230;  -11.960;  849.100
931.410;  138.479;  -13.120;  821.120
931.968;  139.885;  -10.770;  940.660
932.525;  139.983;  -10.680;  909.380
933.082;  142.793;  -13.130;  811.440
933.640;  149.913;  -13.210;  925.900
934.197;  151.277;  -11.060;  886.360
934.754;  151.791;   -9.580;  897.780
935.312;  151.718;  -14.000;  863.340
935.869;  155.835;  -10.710; 1012.980
936.426;  154.794;   -9.860;  872.800
936.983;  153.301;   -9.710;  889.020
937.540;  151.571;  -13.990;  838.280
938.097;  151.359;  -14.040;  940.120
938.654;  153.917;  -10.310;  898.860
939.211;  152.531;  -10.560;  952.480
939.768;  149.571;  -13.900;  915.420
940.324;  151.828;  -14.760;  904.200
940.881;  156.755;  -10.370;  878.500
941.438;  161.856;   -8.260; 1021.200
941.995;  160.428;  -12.540;  992.560
942.551;  161.151;  -14.670;  875.620
943.108;  161.838;  -10.450;  937.920
943.664;  162.223;  -10.750;  869.340
944.221;  167.120;  -11.550; 1088.140
944.777;  168.772;  -14.770;  869.680
945.334;  169.489;  -12.820;  884.840
945.890;  169.721;  -10.130;  946.480
946.446;  166.353;  -13.470;  947.020
947.003;  168.687;  -12.120;  964.940
947.559;  170.356;   -9.980; 1063.040
948.115;  168.541;   -9.080; 1026.540
948.671;  165.390;  -10.830;  967.300
949.227;  161.070;  -12.440;  859.560
949.783;  159.669;  -12.910;  858.900
950.339;  160.506;  -10.270;  991.000
950.895;  160.437;  -13.630; 1023.840
951.451;  159.889;  -15.100;  925.280
952.007;  160.053;  -11.330;  998.540
952.563;  158.700;  -10.580;  937.780
953.118;  154.823;  -13.440;  904.940
953.674;  151.694;  -12.710;  935.780
954.230;  153.201;  -10.350;  949.640
954.785;  154.895;   -9.190;  936.640
955.341;  154.441;  -11.200;  998.160
955.897;  150.836;  -16.560;  834.660
956.452;  149.630;  -12.570;  953.840
957.008;  146.975;   -7.970; 1083.640
957.563;  146.457;  -11.940; 1009.540
958.118;  145.304;  -13.450;  877.700
958.674;  147.202;  -12.030;  946.780
959.229;  145.925;   -9.410; 1013.980
959.784;  143.816;  -12.000;  832.400
960.339;  140.529;  -14.780; 1001.280
960.894;  134.276;   -9.860;  963.760
961.449;  128.617;   -9.970;  859.960
962.004;  127.131;  -10.900; 1212.840
962.559;  122.707;  -13.150;  860.140
963.114;  120.920;  -13.740;  742.480
963.669;  122.527;   -9.820;  915.500
964.224;  121.914;  -13.890;  874.340
964.779;  123.306;  -12.600;  828.420
965.334;  123.855;  -10.950; 1017.860
965.888;  118.698;  -11.170;  875.360
966.443;  118.548;  -12.540;  972.380
966.998;  118.809;  -15.780;  819.460
967.552;  120.440;   -9.760;  908.380
968.107;  115.680;   -9.060;  868.300
968.661;  113.208;  -11.950;  922.440
969.216;  111.733;  -12.800;  856.280
969.770;  113.572;  -11.210;  917.200
970.324;  110.949;  -11.610;  923.140
970.879;  106.912;  -11.370;  947.180
971.433;  107.219;  -12.540;  952.720
971.987;  106.109;  -11.320;  895.340
972.541;  104.842;  -10.720;  917.100
973.095;  105.162;   -9.680; 1009.460
973.649;  104.978;  -11.440;  809.480
974.203;  105.327;  -11.210;  829.040
974.757;  104.662;  -10.240;  855.220
975.311;  103.882;  -13.720;  872.600
975.865;  104.829;  -13.770;  881.820
976.419;  105.606;  -11.690;  857.400
976.973;  104.529;   -9.510;  849.620
977.526;  104.079;  -12.620;  949.920
978.080;  101.427;  -12.010;  796.780
978.634;   99.941;  -10.170;  921.320
979.187;   96.283;   -9.020;  905.400
979.741;   95.113;   -9.820; 1018.380
980.294;   92.389;  -14.870;  789.160
980.848;   88.712;  -12.380;  717.220
981.401;   88.552;  -10.350;  816.540
981.955;   87.639;  -13.720;  844.300
982.508;   85.830;  -11.490;  746.340
983.061;   86.704;  -10.000;  915.260
983.615;   84.706;  -11.480;  798.800
984.168;   83.079;  -13.220;  770.080
984.721;   83.671;  -13.960;  880.760
985.274;   82.070;  -10.870;  867.500
985.827;   80.140;   -9.790;  834.220
986.380;   76.914;  -13.120;  721.340
986.933;   79.339;  -12.450;  864.800
987.486;   79.391;  -10.210;  861.920
988.039;   77.493;   -8.430;  863.100
988.591;   75.011;  -10.520;  893.260
989.144;   72.542;  -14.860;  737.260
989.697;   71.829;  -13.080;  758.740
990.250;   70.220;  -10.150;  858.100
990.802;   67.237;  -13.430;  755.860
991.355;   67.171;  -12.750;  974.880
991.907;   64.532;  -12.040;  864.320
992.460;   61.893;  -11.330;  753.760
993.012;   60.184;  -13.610;  749.540
993.565;   59.398;  -13.460;  711.360
994.117;   61.337;   -9.360;  950.780
994.669;   58.885;  -11.300;  701.320
995.221;   57.905;  -13.540;  791.920
995.774;   57.088;  -13.430;  787.580
996.326;   57.490;  -12.520;  740.220
996.878;   57.334;  -10.950;  838.420
997.430;   54.085;  -14.300;  699.860
997.982;   53.944;  -13.760;  750.140
998.534;   54.098;  -11.530;  739.060
999.086;   51.942;  -10.310;  738.220
999.638;   49.876;  -12.530;  661.380
1000.190;   49.662;  -11.840;  699.320
1000.741;   50.035;  -10.260;  742.700
1001.293;   48.884;   -8.860;  686.020
1001.845;   48.063;  -13.700;  676.640
1002.396;   49.438;  -12.100;  743.400
1002.948;   49.370;  -12.760;  737.400
1003.500;   46.809;  -10.380;  723.780
1004.051;   46.698;  -11.900;  907.580
1004.603;   45.767;  -12.250;  791.820
1005.154;   43.446;  -13.210;  608.980
1005.705;   41.946;  -10.950;  723.960
1006.257;   41.119;  -13.880;  707.220
1006.808;   40.670;  -12.840;  685.460
1007.359;   41.238;  -10.570;  763.240
1007.910;   39.018;   -9.620;  646.640
1008.461;   37.964;  -13.630;  732.940
1009.013;   37.796;  -17.200;  588.340
1009.564;   39.912;  -10.200;  793.520
1010.115;   37.319;  -12.570;  597.040
1010.665;   36.701;  -15.150;  602.160
1011.216;   36.798;  -14.480;  667.920
1011.767;   37.077;  -11.340;  697.920
1012.318;   36.609;   -9.780;  736.980
1012.869;   34.984;  -12.380;  679.000
1013.419;   35.221;  -15.560;  603.120
1013.970;   36.812;  -11.010;  666.640
1014.521;   34.734;  -11.610;  620.620
1015.071;   34.133;  -13.450;  670.380
1015.622;   34.321;  -13.870;  635.460
1016.172;   34.463;  -11.610;  596.820
1016.723;   33.786;  -12.120;  614.380
1017.273;   33.658;  -13.620;  604.160
1017.823;   33.531;  -14.140;  650.340
1018.374;   33.457;  -12.800;  611.760
1018.924;   33.203;  -12.340;  716.880
1019.474;   32.377;  -11.410;  718.880
1020.024;   30.756;  -14.770;  657.580
1020.574;   33.469;   -9.780;  726.160
1021.124;   33.077;   -8.560;  673.580
1021.674;   31.001;  -15.190;  559.120
1022.224;   32.614;  -13.530;  708.940
1022.774;   32.480;  -13.280;  668.820
1023.324;   32.313;  -10.690;  753.520
1023.874;   32.895;  -10.240;  875.760
1024.423;   30.773;  -12.540;  613.700
1024.973;   31.743;  -10.010;  610.760
1025.523;   29.899;  -10.550;  620.960
1026.072;   28.706;  -13.560;  606.420
1026.622;   28.429;  -15.120;  675.740
1027.172;   30.835;  -11.260;  715.660
1027.721;   28.880;  -11.410;  601.220
1028.270;   28.248;  -13.530;  663.400
1028.820;   29.718;  -13.680;  638.080
1029.369;   30.036;  -13.520;  612.700
1029.918;   29.091;  -10.980;  649.840
1030.468;   27.896;  -13.530;  564.780
1031.017;   28.470;  -13.170;  634.800
1031.566;   28.603;  -12.200;  608.900
1032.115;   28.188;   -9.960;  694.500
1032.664;   27.069;  -13.210;  596.480
1033.213;   27.953;  -12.500;  735.420
1033.762;   27.812;  -11.910;  635.620
1034.311;   27.698;   -9.640;  677.220
1034.860;   27.084;  -13.310;  691.000
1035.408;   27.287;  -11.830;  722.720
1035.957;   28.258;  -12.000;  719.540
1036.506;   25.870;  -11.690;  530.800
1037.055;   27.305;  -10.990;  844.320
1037.603;   25.927;  -15.120;  664.000
1038.152;   25.336;  -12.450;  534.760
1038.700;   25.459;  -10.560;  585.740
1039.249;   24.843;  -11.080;  681.220
1039.797;   24.965;  -12.540;  633.360
1040.345;   25.858;  -11.920;  705.420
1040.894;   25.288;  -11.410;  625.300
1041.442;   24.417;  -14.320;  632.200
1041.990;   23.872;  -16.240;  559.160
1042.538;   24.215;  -11.680;  536.180
1043.087;   23.687;  -10.760;  570.860
1043.635;   24.427;  -11.850;  670.500
1044.183;   23.577;  -15.480;  586.400
1044.731;   24.384;  -11.770;  576.000
1045.279;   23.835;  -13.090;  674.920
1045.827;   24.277;  -12.440;  892.400
1046.374;   21.906;  -13.840;  515.420
1046.922;   22.700;  -13.220;  590.580
1047.470;   23.022;  -10.230;  691.300
1048.018;   22.365;  -14.590;  647.960
1048.565;   23.913;  -12.050;  708.600
1049.113;   22.259;  -11.650;  557.000
1049.660;   22.338;  -10.510;  629.660
1050.208;   22.107;  -13.310;  675.640
1050.755;   22.165;  -15.900;  606.580
1051.303;   22.517;  -11.430;  686.820
1051.850;   21.744;   -8.480;  635.120
1052.397;   19.472;  -15.010;  473.960
1052.945;   20.752;  -13.960;  617.760
1053.492;   23.103;  -13.150;  741.840
1054.039;   22.529;   -9.630;  720.180
1054.586;   20.246;  -13.680;  557.240
1055.133;   20.765;  -14.570;  693.140
1055.680;   22.400;  -13.820;  646.620
1056.227;   19.539;  -11.730;  542.780
1056.774;   21.082;  -12.480;  794.980
1057.321;   19.785;  -13.930;  523.260
1057.868;   20.577;  -11.690;  651.320
1058.415;   20.115;   -9.520;  651.980
1058.961;   19.050;  -13.160;  678.940
1059.508;   19.684;  -12.920;  643.820
1060.055;   20.026;  -11.920;  581.780
1060.601;   20.776;  -11.500;  624.300
1061.148;   18.648;  -14.330;  616.820
1061.694;   18.432;  -16.870;  592.580
1062.241;   19.875;  -10.330;  596.320
1062.787;   19.291;  -10.620;  663.140
1063.334;   20.600;  -10.110;  808.560
1063.880;   18.982;  -13.400;  668.360
1064.426;   19.700;  -10.680;  706.820
1064.972;   18.316;   -9.920;  601.340
1065.518;   16.526;  -10.980;  566.640
1066.065;   18.644;  -14.890;  624.460
1066.611;   17.971;  -12.870;  598.800
1067.157;   18.767;  -12.950;  641.860
1067.703;   17.372;  -13.540;  668.480
1068.249;   18.442;  -13.540;  605.220
1068.794;   18.514;  -12.600;  626.880
1069.340;   17.310;  -10.620;  578.960
1069.886;   15.927;  -12.830;  590.700
1070.432;   16.152;  -14.870;  541.720
1070.977;   17.380;  -11.980;  601.080
1071.523;   16.260;   -8.200;  573.060
1072.068;   15.760;  -12.330;  582.000
1072.614;   16.081;  -16.370;  527.760
1073.160;   18.017;  -11.100;  687.040
1073.705;   16.537;  -10.480;  572.520
1074.250;   15.786;  -14.520;  559.900
1074.796;   16.818;  -11.460;  655.160
1075.341;   17.809;  -11.950;  664.100
1075.886;   16.204;  -11.460;  594.240
1076.431;   15.044;  -13.770;  649.880
1076.976;   15.751;  -12.680;  639.220
1077.521;   15.089;  -13.170;  583.080
1078.067;   15.211;  -10.860;  579.400
1078.612;   14.546;  -13.920;  661.620
1079.156;   15.202;  -13.880;  601.540
1079.701;   15.865;  -13.120;  693.260
1080.246;   16.252;   -9.940;  696.300
1080.791;   14.384;  -14.740;  625.020
1081.336;   14.789;  -13.750;  659.320
1081.880;   15.270;  -13.400;  649.680
1082.425;   13.805;  -12.220;  573.480
1082.970;   15.131;  -11.610;  717.040
1083.514;   13.752;  -13.580;  597.000
1084.059;   13.891;  -12.810;  586.720
1084.603;   13.404;  -12.320;  565.840
1085.147;   13.034;  -13.190;  645.220
1085.692;   14.612;  -12.480;  716.800
1086.236;   13.422;  -13.020;  503.140
1086.780;   14.930;   -9.190;  751.440
1087.325;   12.955;  -12.480;  654.620
1087.869;   13.165;  -12.450;  610.700
1088.413;   14.609;  -12.240;  705.040
1088.957;   12.483;   -9.020;  543.400
1089.501;   13.078;  -10.320;  766.640
1090.045;   13.110;  -12.720;  726.480
1090.589;   11.604;  -13.690;  569.920
1091.133;   12.708;  -10.020;  673.340
1091.676;   12.305;  -12.330;  591.940
1092.220;   12.317;  -14.970;  600.920
1092.764;   13.955;  -12.430;  706.960
1093.307;   13.789;   -9.800;  673.780
1093.851;   11.031;  -14.970;  556.540
1094.395;   12.352;  -15.310;  683.140
1094.938;   12.173;  -10.370;  632.520
1095.482;   12.051;  -11.050;  559.800
1096.025;   11.367;  -11.840;  710.880
1096.568;   12.632;  -12.840;  779.280
1097.112;   10.359;  -14.700;  508.180
1097.655;   11.612;   -8.720;  603.000
1098.198;    9.499;  -13.610;  600.180
1098.741;   10.047;  -13.350;  612.860
1099.285;   12.312;  -11.230;  657.300
1099.828;    9.464;  -11.840;  439.400
1100.371;   10.112;  -10.840;  608.160
1100.914;   10.329;  -14.190;  682.660
1101.457;   11.648;  -11.240;  679.900
1101.999;    9.714;  -11.270;  584.680
1102.542;    9.976;  -11.480;  641.440
1103.085;    9.601;  -11.750;  658.500
1103.628;   12.206;  -11.400;  762.060
1104.170;    9.986;  -10.490;  588.280
1104.713;    9.594;  -10.600;  646.700
1105.256;    8.889;  -14.360;  557.440
1105.798;    9.363;  -13.210;  499.980
1106.341;   11.062;  -10.270;  728.900
1106.883;    8.049;  -12.200;  521.340
1107.425;   10.313;  -13.110;  668.180
1107.968;    9.458;  -12.840;  612.380
1108.510;   10.108;   -6.480;  684.960
1109.052;    8.029;  -13.940;  612.620
1109.594;    8.054;  -13.690;  554.440
1110.136;    9.762;  -11.880;  643.220
1110.679;    8.899;   -9.500;  633.080
1111.221;    8.369;  -14.160;  604.460
1111.763;    8.286;  -13.980;  559.220
1112.304;    8.504;  -13.880;  547.140
1112.846;    8.780;  -12.210;  666.240
1113.388;   11.385;  -11.390;  942.180
1113.930;    8.861;  -14.540;  694.200
1114.472;    8.270;  -12.640;  606.540
1115.013;    6.786;  -11.620;  551.280
1115.555;    6.239;  -13.640;  587.100
1116.097;    6.103;  -15.380;  579.480
1116.638;    8.196;  -12.640;  684.600
1117.180;    7.718;   -9.850;  667.740
1117.721;    6.502;  -13.690;  568.580
1118.262;    7.803;  -12.680;  677.960
1118.804;    8.865;  -12.530;  637.340
1119.345;    6.867;  -11.690;  578.400
1119.886;    7.313;  -13.380;  704.040
1120.427;    6.646;  -14.070;  589.020
1120.969;    6.671;  -13.500;  597.920
1121.510;    6.173;  -11.480;  563.060
1122.051;    6.103;  -12.830;  723.580
1122.592;    5.573;  -14.290;  655.420
1123.133;    5.612;  -12.400;  547.940
1123.673;    7.581;  -10.130;  706.480
1124.214;    5.054;  -12.930;  612.460
1124.755;    7.406;  -14.380;  639.460
1125.296;    6.726;  -14.000;  627.320
1125.836;    7.498;  -10.070;  691.500
1126.377;    4.775;  -12.640;  599.660
1126.918;    5.600;  -12.960;  614.980
1127.458;    5.873;  -13.350;  622.220
1127.999;    6.768;  -10.750;  656.980
1128.539;    5.009;  -12.350;  694.240
1129.079;    4.662;  -14.860;  632.720
1129.620;    6.048;  -13.840;  558.100
1130.160;    5.112;  -12.330;  539.480
1130.700;    4.244;  -14.530;  640.840
1131.240;    5.196;  -12.530;  643.700
1131.781;    5.631;  -14.450;  619.680
1132.321;    5.184;   -9.790;  599.120
1132.861;    3.395;  -14.860;  564.200
1133.401;    3.607;  -14.290;  593.940
1133.941;    5.430;  -11.750;  626.280
1134.481;    5.011;   -9.920;  597.580
1135.020;    2.528;  -12.290;  609.160
1135.560;    3.345;  -11.650;  674.940
1136.100;    3.462;  -16.270;  501.160
1136.640;    3.485;  -10.890;  510.480
1137.179;    2.912;  -14.180;  537.960
1137.719;    3.451;  -16.250;  605.400
1138.258;    4.096;  -14.230;  587.360
1138.798;    4.397;   -9.090;  663.780
1139.337;    1.856;  -15.130;  482.840
1139.877;    3.242;  -13.680;  642.360
1140.416;    6.046;  -11.320;  878.060
1140.955;    2.880;  -10.860;  535.380
1141.494;    2.643;  -12.920;  669.280
1142.034;    1.822;  -13.930;  583.520
1142.573;    3.979;  -11.440;  646.280
1143.112;    3.029;  -12.000;  553.480
1143.651;    1.996;  -13.670;  536.480
1144.190;    3.765;  -12.730;  691.640
1144.729;    3.214;  -14.560;  607.420
1145.267;    2.951;  -11.830;  584.900
1145.806;    2.597;  -12.230;  637.040
1146.345;    1.961;  -14.130;  635.020
1146.884;    2.618;  -11.590;  622.500
1147.422;    1.910;  -12.550;  533.060
1147.961;    3.038;  -11.180;  708.460
1148.500;    2.944;  -11.510;  669.720
1149.038;    3.926;  -11.640;  632.500
1149.577;    3.008;  -10.130;  698.640
1150.115;   -0.308;  -13.970;  452.280
1150.653;    1.528;  -14.520;  607.340
1151.192;    3.018;  -12.810;  552.920
1151.730;    2.457;   -9.100;  652.560
1152.268;    0.950;  -12.220;  589.520
1152.806;    1.505;  -14.140;  571.180
1153.344;    0.400;  -12.350;  577.640
1153.882;    1.819;   -8.980;  600.060
1154.421;   -0.112;  -15.190;  470.620
1154.958;    0.267;  -15.210;  595.240
1155.496;    3.161;  -12.850;  645.280
1156.034;    0.993;   -9.940;  721.880
1156.572;    1.912;  -13.570;  667.060
1157.110;   -0.314;  -14.590;  473.940
1157.647;    2.329;  -13.030;  676.960
1158.185;    0.598;  -12.140;  564.320
1158.723;   -0.660;  -14.390;  509.200
1159.260;    0.318;  -14.090;  701.700
1159.798;    2.006;  -11.920;  658.160
1160.335;    0.605;  -11.110;  631.820

