
Integration time [ms]:   3.276
Averaging Nr. [scans]: 1000
Smoothing Nr. [pixels]: 0
Data measured with spectrometer [name]: 7414430SP
Wave   ;Sample   ;Dark     ;Reference
[nm]   ;[counts] ;[counts] ;[counts] 

288.544;  150.354;    7.793;  793.890
289.143;  155.263;    7.462;  681.602
289.742;  154.418;    8.602;  828.814
290.341;  141.020;    1.321;  789.841
290.940;  129.866;   -0.709;  730.702
291.538;  129.937;    0.881;  881.108
292.137;  131.114;    0.122;  792.581
292.736;  134.851;   -1.929;  975.101
293.335;  131.320;   -8.229;  735.086
293.934;  131.773;   -5.279;  781.677
294.532;  130.182;   -1.369; 1031.958
295.131;  115.957;   -7.641;  834.394
295.730;  116.463;   -8.420;  809.588
296.328;  116.167;   -5.611;  783.442
296.927;  115.762;   -5.781;  779.652
297.525;  116.876;   -6.361;  781.236
298.124;  107.514;  -11.382;  654.009
298.722;  110.920;   -7.641;  761.933
299.321;  108.852;   -6.811;  708.597
299.919;  107.919;   -6.991;  751.918
300.518;  104.102;  -10.362;  689.338
301.116;  106.139;   -9.581;  691.381
301.715;  106.304;   -4.891;  730.222
302.313;  104.423;   -8.801;  704.943
302.911;   99.375;   -8.522;  733.830
303.509;  105.841;   -6.171;  925.627
304.108;  103.333;   -7.311;  760.383
304.706;  102.224;   -8.321;  801.664
305.304;   96.859;  -10.222;  796.707
305.902;  101.602;   -6.021;  784.484
306.500;   97.788;   -4.971;  728.200
307.098;   96.286;   -7.061;  746.560
307.696;   94.722;   -8.801;  780.432
308.294;   94.346;   -6.411;  731.359
308.892;   95.966;   -2.901;  759.769
309.490;   92.852;   -5.041;  712.161
310.088;   91.015;   -5.002;  788.444
310.686;   96.060;   -2.041;  821.749
311.284;   91.206;   -2.351;  766.040
311.882;   88.466;   -4.422;  731.225
312.480;   86.474;   -4.192;  697.167
313.078;   87.388;   -1.172;  808.331
313.675;   87.243;   -2.601;  691.600
314.273;   83.558;   -1.312;  797.837
314.871;   82.399;   -3.942;  589.829
315.468;   80.223;   -2.802;  652.090
316.066;   83.106;   -0.701;  694.427
316.664;   76.638;   -4.362;  656.351
317.261;   80.301;   -2.872;  910.128
317.859;   75.219;   -2.022;  768.735
318.456;   76.440;   -0.531;  830.096
319.054;   71.579;   -3.912;  787.828
319.651;   70.974;   -4.752;  759.928
320.249;   70.030;   -2.602;  810.188
320.846;   67.831;   -0.821;  714.286
321.443;   65.654;   -4.642;  832.135
322.041;   62.033;   -5.002;  812.315
322.638;   59.244;   -3.982;  701.456
323.235;   61.038;   -3.411;  665.683
323.833;   58.556;   -7.361;  740.354
324.430;   54.153;   -8.611;  615.900
325.027;   54.972;   -4.061;  876.855
325.624;   54.294;   -4.031;  644.532
326.221;   51.440;   -7.481;  689.717
326.818;   50.696;   -5.281;  818.332
327.415;   54.148;   -7.460;  748.828
328.012;   54.128;   -5.510;  690.585
328.609;   52.901;   -7.880;  731.389
329.206;   51.176;   -8.331;  778.621
329.803;   50.296;   -5.121;  737.841
330.400;   52.537;   -4.510;  704.260
330.997;   54.044;   -6.441;  817.147
331.594;   53.299;   -8.831;  788.185
332.191;   58.425;   -7.621;  728.722
332.787;   61.267;   -4.591;  844.463
333.384;   59.572;   -7.412;  763.093
333.981;   58.564;   -8.293;  815.687
334.578;   61.554;   -7.052;  708.378
335.174;   64.439;   -3.102;  731.469
335.771;   63.720;   -5.943;  836.456
336.367;   60.576;   -7.393;  710.631
336.964;   65.002;   -4.063;  793.266
337.561;   61.715;   -3.813;  731.112
338.157;   58.675;   -4.654;  911.916
338.754;   55.774;   -7.934;  796.589
339.350;   53.583;   -4.414;  722.493
339.946;   55.601;   -4.664;  773.135
340.543;   47.700;   -6.375;  846.136
341.139;   42.064;   -9.815;  720.836
341.735;   40.841;   -4.526;  772.593
342.332;   38.183;   -4.895;  691.472
342.928;   38.780;   -4.295;  795.394
343.524;   32.816;   -5.476;  761.684
344.120;   29.539;   -5.856;  738.562
344.716;   32.945;   -2.155;  723.717
345.313;   29.677;   -6.275;  795.342
345.909;   24.365;   -8.815;  627.336
346.505;   27.080;   -5.305;  740.247
347.101;   27.159;   -2.674;  827.864
347.697;   28.508;   -4.344;  785.398
348.293;   22.913;   -9.975;  627.244
348.889;   23.039;   -5.774;  745.914
349.485;   22.920;   -5.004;  688.205
350.081;   23.055;   -4.704;  772.592
350.676;   18.302;   -6.635;  691.606
351.272;   22.567;   -4.504;  809.530
351.868;   22.139;   -3.914;  780.497
352.464;   19.730;   -9.044;  723.932
353.059;   15.630;   -8.314;  646.017
353.655;   19.487;   -7.024;  777.063
354.251;   20.787;   -5.343;  759.845
354.846;   14.815;   -8.604;  740.646
355.442;   12.287;   -6.945;  753.071
356.038;   15.046;   -7.564;  751.708
356.633;   14.610;   -5.814;  728.594
357.229;   12.346;   -7.364;  724.757
357.824;   11.240;   -8.024;  703.600
358.420;   10.447;   -9.384;  679.726
359.015;   11.058;   -5.104;  695.357
359.610;   11.499;   -6.854;  763.920
360.206;    5.083;  -10.185;  603.240
360.801;    8.276;   -7.054;  646.503
361.396;   10.315;   -5.034;  725.975
361.992;    6.194;   -8.284;  668.220
362.587;    2.700;   -8.625;  670.160
363.182;    5.470;   -7.674;  689.631
363.777;    6.652;   -5.164;  738.242
364.372;    5.807;   -8.604;  737.314
364.967;    1.524;   -9.055;  680.744
365.563;    6.578;   -6.114;  815.567
366.158;    3.235;   -5.814;  685.161
366.753;    3.472;   -7.854;  649.263
367.348;    2.213;   -7.804;  746.056
367.942;    1.828;   -7.954;  697.298
368.537;    1.142;   -4.984;  754.245
369.132;    0.797;   -8.564;  703.428
369.727;   -3.226;   -8.855;  638.079
370.322;   -0.684;   -6.245;  580.186
370.917;   -2.068;   -6.425;  710.646
371.511;    1.530;   -6.294;  861.834
372.106;   -2.511;   -7.685;  776.964
372.701;   -6.019;   -7.335;  585.988
373.296;    0.240;   -4.564;  863.135
373.890;   -5.601;  -10.235;  647.840
374.485;   -7.383;   -7.885;  691.199
375.079;   -3.434;   -7.324;  738.685
375.674;   -1.551;   -3.494;  812.970
376.268;   -6.607;   -8.525;  691.759
376.863;  -11.682;  -10.086;  580.327
377.457;   -5.128;   -7.025;  662.490
378.052;   -7.520;   -3.585;  764.884
378.646;   -8.225;   -7.595;  741.167
379.240;   -8.764;   -8.335;  721.176
379.835;   -8.080;   -5.785;  636.978
380.429;   -9.564;   -4.335;  562.557
381.023;   -9.642;   -6.805;  779.205
381.617;  -11.838;   -9.195;  680.106
382.212;   -9.090;   -6.905;  685.303
382.806;   -7.451;   -3.745;  760.690
383.400;  -12.455;   -7.745;  672.281
383.994;  -13.333;   -9.765;  664.870
384.588;   -9.466;   -6.564;  697.701
385.182;   -7.153;   -5.344;  726.624
385.776;   -9.573;   -8.514;  706.875
386.370;  -12.153;   -9.555;  681.968
386.964;  -10.680;   -8.715;  684.155
387.558;  -10.054;   -6.174;  598.360
388.152;  -13.728;   -8.725;  681.959
388.745;  -11.551;   -7.965;  814.707
389.339;   -9.744;   -5.924;  747.642
389.933;   -8.895;   -5.524;  695.370
390.527;   -9.940;   -7.114;  859.029
391.120;  -15.882;  -10.725;  595.318
391.714;  -13.008;   -8.035;  711.633
392.308;   -9.961;   -3.574;  780.253
392.901;  -12.746;   -7.245;  642.460
393.495;  -15.893;   -9.285;  595.414
394.089;  -13.312;   -5.895;  760.452
394.682;  -13.772;   -4.295;  697.188
395.275;  -14.241;   -9.875;  719.927
395.869;  -16.088;   -8.485;  667.314
396.462;  -14.073;   -7.455;  616.609
397.056;  -10.096;   -5.424;  776.621
397.649;  -15.479;   -6.605;  731.575
398.242;  -12.372;   -8.224;  712.645
398.836;  -11.683;   -7.474;  766.408
399.429;  -12.564;   -7.094;  631.041
400.022;  -16.931;   -9.475;  665.902
400.615;  -14.851;   -7.145;  805.609
401.208;  -11.588;   -7.174;  691.451
401.802;  -14.352;   -5.515;  699.329
402.395;  -15.618;   -9.875;  683.502
402.988;  -16.385;   -8.845;  696.627
403.581;  -13.078;   -8.874;  646.878
404.174;  -10.466;   -5.324;  686.568
404.767;  -14.259;   -9.575;  638.583
405.360;  -16.572;  -10.965;  621.445
405.953;  -10.098;   -8.764;  759.034
406.545;  -11.003;   -7.514;  725.342
407.138;  -14.313;  -10.025;  618.350
407.731;  -13.300;  -10.034;  613.303
408.324;   -9.573;   -9.374;  660.554
408.917;  -10.065;   -6.534;  681.864
409.509;  -12.510;   -8.004;  740.396
410.102;  -13.839;   -9.875;  643.948
410.695;   -8.066;   -8.604;  665.758
411.287;   -8.960;   -6.794;  599.821
411.880;  -10.297;   -9.334;  585.421
412.472;  -13.159;  -10.254;  613.092
413.065;  -10.332;   -6.714;  629.408
413.657;   -8.080;   -7.234;  576.678
414.250;   -8.273;  -10.544;  646.681
414.842;  -10.390;   -9.744;  676.353
415.434;   -7.453;   -6.994;  570.463
416.027;   -3.642;   -5.893;  652.196
416.619;   -5.752;   -7.264;  713.400
417.211;   -6.596;  -10.374;  599.352
417.804;   -2.353;   -7.993;  628.499
418.396;   -6.428;   -7.234;  607.643
418.988;   -4.456;   -9.443;  659.238
419.580;   -8.782;  -10.724;  568.276
420.172;   -5.283;  -10.323;  536.196
420.764;   -1.935;   -8.793;  672.482
421.356;   -3.500;  -11.143;  636.898
421.948;   -3.988;   -8.293;  677.661
422.540;    0.762;   -7.893;  680.027
423.132;    0.785;   -7.082;  600.641
423.724;   -2.694;   -8.653;  561.267
424.316;   -0.722;  -10.213;  621.345
424.908;    3.122;   -9.762;  591.517
425.500;    3.707;   -5.572;  647.978
426.092;    4.450;   -8.422;  648.268
426.683;    2.229;   -9.283;  684.836
427.275;    5.512;   -7.852;  641.471
427.867;    7.471;   -5.272;  668.948
428.458;    7.864;   -7.682;  732.344
429.050;    5.526;  -10.612;  680.749
429.642;    8.865;   -9.882;  743.124
430.233;    9.452;   -6.962;  569.356
430.825;   10.757;   -6.842;  724.809
431.416;    7.158;   -9.672;  698.241
432.008;   12.013;   -6.552;  651.723
432.599;   11.922;   -6.891;  656.073
433.190;    9.114;  -10.912;  637.670
433.782;    8.427;  -11.172;  590.395
434.373;   16.097;   -6.061;  884.765
434.964;   14.587;   -8.251;  602.920
435.556;   12.643;   -9.722;  634.537
436.147;   15.360;   -9.082;  758.490
436.738;   14.894;   -8.041;  701.099
437.329;   20.388;   -7.341;  721.723
437.920;   12.460;   -8.162;  666.688
438.511;   12.770;  -11.802;  564.526
439.103;   19.919;  -10.191;  623.998
439.694;   21.443;   -7.601;  681.583
440.285;   21.535;   -8.541;  764.432
440.876;   20.073;   -9.751;  845.738
441.466;   19.830;   -9.401;  575.162
442.057;   25.050;   -7.760;  665.814
442.648;   23.459;   -9.971;  746.255
443.239;   22.252;  -11.001;  620.477
443.830;   27.392;   -7.990;  704.958
444.421;   29.025;   -7.910;  655.474
445.011;   25.669;   -8.131;  693.619
445.602;   24.514;   -7.111;  743.126
446.193;   26.943;  -10.920;  488.117
446.783;   31.885;   -6.500;  640.397
447.374;   27.110;   -8.671;  692.759
447.964;   27.566;  -10.781;  713.770
448.555;   35.998;   -9.650;  822.742
449.145;   32.052;   -8.660;  662.853
449.736;   33.426;   -8.990;  803.179
450.326;   33.181;   -9.500;  713.626
450.917;   38.107;   -8.680;  675.324
451.507;   38.733;   -7.520;  600.661
452.097;   38.080;   -8.590;  746.267
452.688;   38.844;  -11.340;  742.160
453.278;   38.612;  -10.100;  566.840
453.868;   43.335;   -6.019;  793.550
454.458;   40.908;   -9.440;  651.141
455.048;   41.076;  -10.560;  711.783
455.639;   42.760;  -11.799;  567.096
456.229;   46.469;   -6.899;  710.694
456.819;   48.137;   -7.389;  751.158
457.409;   48.911;  -11.119;  773.993
457.999;   51.361;   -9.289;  737.505
458.589;   51.474;   -6.139;  686.606
459.179;   51.690;   -8.729;  717.658
459.769;   49.170;   -9.789;  627.099
460.358;   55.487;  -10.259;  797.262
460.948;   53.546;   -7.299;  689.503
461.538;   56.071;  -10.289;  660.677
462.128;   53.394;  -11.269;  664.934
462.717;   60.344;   -9.368;  710.326
463.307;   63.335;   -7.908;  705.846
463.897;   59.189;   -9.599;  656.942
464.486;   58.314;   -9.769;  837.128
465.076;   63.633;   -8.048;  733.776
465.666;   66.348;   -9.358;  652.900
466.255;   63.675;   -7.919;  785.651
466.845;   63.240;  -11.689;  666.749
467.434;   66.088;   -7.818;  725.873
468.023;   66.688;   -7.678;  658.357
468.613;   65.073;  -10.939;  713.946
469.202;   69.457;  -10.118;  646.507
469.791;   73.132;   -9.108;  737.811
470.381;   75.161;   -6.058;  742.813
470.970;   75.423;  -10.428;  711.099
471.559;   73.810;  -10.268;  733.291
472.148;   77.481;   -8.448;  675.737
472.738;   80.268;   -6.917;  765.466
473.327;   80.110;  -11.978;  637.529
473.916;   79.284;  -11.888;  737.446
474.505;   83.813;   -9.437;  751.703
475.094;   87.375;   -6.747;  806.570
475.683;   86.129;   -9.367;  797.699
476.272;   86.708;  -12.637;  730.632
476.861;   90.300;  -10.027;  706.754
477.449;   97.349;   -8.716;  728.487
478.038;   90.977;   -9.577;  692.513
478.627;   91.909;   -9.718;  714.852
479.216;   98.435;   -8.947;  769.441
479.805;  101.642;   -6.256;  783.375
480.393;  101.286;   -7.937; 1008.945
480.982;   99.674;   -7.717;  874.501
481.571;  107.509;   -9.266;  858.333
482.159;  107.297;   -7.636;  705.386
482.748;  106.690;   -9.667;  821.385
483.336;  112.092;  -10.376;  858.209
483.925;  112.301;   -7.147;  774.373
484.513;  119.066;   -7.996;  758.962
485.102;  114.976;  -10.027;  810.965
485.690;  123.663;  -10.446; 1011.050
486.278;  126.597;   -8.446;  979.329
486.867;  126.517;   -6.356;  809.662
487.455;  128.462;   -9.136;  898.229
488.043;  129.416;  -10.646;  748.361
488.631;  139.405;   -7.456; 1005.079
489.220;  141.902;   -6.636;  908.626
489.808;  142.464;  -11.036;  741.415
490.396;  149.998;  -10.246;  914.645
490.984;  156.908;   -8.556;  830.161
491.572;  166.105;   -5.886;  940.315
492.160;  171.907;   -9.486;  919.081
492.748;  183.991;  -10.976;  884.341
493.336;  206.220;   -8.776; 1019.693
493.924;  233.131;   -5.465;  958.077
494.512;  260.231;   -9.986; 1066.638
495.100;  296.025;  -10.636; 1103.280
495.687;  350.719;  -10.885; 1206.373
496.275;  413.330;   -8.126; 1150.796
496.863;  482.413;  -10.586; 1281.171
497.451;  582.786;  -11.926; 1386.805
498.038;  711.189;  -10.885; 1556.729
498.626;  818.550;   -6.315; 1741.407
499.214;  964.713;   -7.326; 2016.609
499.801; 1155.194;  -11.906; 2220.633
500.389; 1398.561;  -10.466; 2312.494
500.976; 1699.522;   -5.236; 2744.849
501.564; 2130.758;   -8.936; 3148.565
502.151; 2492.173;  -13.176; 3515.999
502.738; 2921.328;  -10.646; 3971.274
503.326; 3309.020;   -9.525; 4403.796
503.913; 3693.999;  -10.856; 5161.749
504.500; 4058.988;  -11.586; 5986.420
505.088; 4466.544;  -10.336; 6381.201
505.675; 4977.481;   -6.355; 6925.547
506.262; 5680.294;   -9.046; 7619.060
506.849; 6386.515;  -10.416; 8733.969
507.436; 6848.149;  -10.305; 9790.121
508.023; 7418.888;   -5.496; 9985.472
508.610; 7696.264;   -7.856;10434.618
509.197; 8338.702;  -10.097;11198.435
509.784; 9672.257;  -10.886;12391.194
510.371;10744.280;   -9.315;13603.713
510.958;11562.638;   -9.936;14426.586
511.545;12331.968;   -9.326;15243.775
512.132;13123.032;  -10.075;15945.876
512.719;13635.065;   -7.796;16340.369
513.305;14574.356;  -10.606;18011.766
513.892;15280.794;  -11.486;19754.971
514.479;16626.541;   -9.126;20967.805
515.066;18200.443;   -6.026;22299.793
515.652;19559.463;   -8.466;22908.660
516.239;20860.701;  -10.886;23798.875
516.825;21824.414;  -11.496;25567.275
517.412;22784.768;   -5.796;28154.959
517.998;23353.916;  -10.506;28344.111
518.585;23489.727;  -10.076;27134.219
519.171;24049.781;   -8.315;27268.576
519.758;25405.061;   -8.596;28964.129
520.344;27316.926;   -8.466;30664.494
520.930;27361.428;  -11.006;32550.605
521.516;28598.992;  -10.495;35422.895
522.103;30799.678;   -5.526;38280.004
522.689;31278.594;   -8.746;37835.117
523.275;30841.463;  -11.376;37288.613
523.861;32261.371;  -11.156;37281.395
524.447;33690.953;   -8.135;37846.949
525.033;33504.793;   -7.896;38321.949
525.619;33550.555;  -12.476;38579.285
526.205;34977.074;   -9.516;40622.875
526.791;37219.953;   -6.926;42258.836
527.377;37336.766;   -8.346;42966.902
527.963;38299.703;   -8.717;42018.949
528.549;36500.977;  -11.016;42476.828
529.135;34379.625;   -8.536;41854.852
529.721;31761.408;   -9.666;41237.711
530.306;29586.938;  -10.066;41259.445
530.892;30572.934;  -11.356;41506.047
531.478;34529.137;   -6.596;43559.613
532.063;39232.926;   -8.836;47695.563
532.649;40324.594;  -10.047;50808.324
533.235;40887.977;   -9.746;51787.500
533.820;40936.324;   -6.566;52145.035
534.406;41846.172;  -10.817;51133.488
534.991;40700.145;   -9.416;49996.805
535.576;37756.457;   -9.036;48882.852
536.162;35516.941;   -6.156;46942.285
536.747;32943.184;  -11.607;45711.746
537.333;35378.734;  -11.787;48510.180
537.918;41717.316;  -12.437;50439.891
538.503;45866.082;   -7.196;50863.711
539.088;45904.387;  -10.556;50906.922
539.673;46836.070;   -8.767;52621.965
540.259;47145.523;  -10.026;52368.094
540.844;44551.742;   -7.416;50879.109
541.429;45961.676;   -9.467;52077.777
542.014;48435.641;   -9.527;52716.695
542.599;47514.148;   -9.946;52363.281
543.184;45099.832;   -7.927;53187.137
543.769;46563.379;   -9.297;54697.605
544.354;46013.074;  -10.127;53913.914
544.938;44626.871;   -9.267;49680.164
545.523;46654.961;   -6.506;47386.277
546.108;49611.949;   -9.787;49151.949
546.693;51531.738;  -11.587;51384.637
547.278;51066.102;  -10.986;51853.254
547.862;48122.316;   -8.206;51173.750
548.447;43654.949;  -10.067;51691.395
549.031;42991.871;   -9.637;52456.703
549.616;47965.379;   -9.926;52714.516
550.201;47426.918;   -6.347;52414.598
550.785;48663.117;   -7.917;52355.059
551.370;47591.508;  -10.867;54589.453
551.954;46798.723;   -9.047;58267.348
552.538;47667.500;   -7.827;59062.176
553.123;45960.746;  -10.287;58115.285
553.707;43545.109;  -12.178;56556.285
554.291;44923.719;   -8.717;56201.668
554.876;47370.879;   -7.457;55335.762
555.460;47360.910;  -10.387;54155.703
556.044;48253.559;   -9.618;53721.484
556.628;47025.582;  -11.567;53731.016
557.212;45952.570;   -8.097;54312.531
557.796;44464.156;  -11.077;53797.773
558.380;44475.309;  -11.108;56145.984
558.964;44921.621;   -9.057;57277.930
559.548;46212.922;   -6.977;56459.641
560.132;44382.461;  -11.457;54434.543
560.716;42804.605;  -11.378;54800.617
561.300;43841.871;   -9.577;57606.945
561.884;45098.027;   -7.127;58972.445
562.467;43455.156;   -7.118;57327.570
563.051;42780.457;  -13.358;54962.434
563.635;43889.363;  -10.178;52594.473
564.219;44023.195;   -7.837;50610.410
564.802;44867.930;  -11.398;49551.180
565.386;44777.695;  -12.788;48370.953
565.969;44055.441;   -9.077;48178.871
566.553;43147.961;   -6.207;49957.305
567.136;43874.125;   -8.568;50369.594
567.720;40367.523;  -11.868;49492.004
568.303;38108.434;   -8.268;50616.352
568.887;38114.914;   -8.698;50727.148
569.470;38453.285;   -6.808;51698.379
570.053;37109.738;  -13.188;52122.078
570.637;35480.621;  -12.037;52536.438
571.220;35423.629;   -8.577;51186.098
571.803;36247.926;   -8.498;51032.762
572.386;38300.844;  -10.498;49609.887
572.969;40693.922;   -9.388;48285.926
573.552;38952.820;   -8.338;47624.285
574.135;37591.355;   -8.518;45498.641
574.718;35242.738;  -13.628;41970.434
575.301;34287.816;  -10.893;41447.137
575.884;33332.898;   -8.158;40923.836
576.467;34482.254;  -10.328;45267.723
577.050;36209.277;  -13.058;48175.543
577.633;37569.605;   -9.458;47729.328
578.216;36732.039;   -8.928;47579.793
578.799;35898.102;   -9.358;47820.996
579.381;34861.813;  -11.388;48115.551
579.964;32978.746;  -11.718;47333.766
580.547;34676.633;   -8.588;46668.969
581.129;35768.793;   -8.859;44466.141
581.712;36579.973;  -10.729;44164.922
582.294;37085.246;  -11.118;46477.855
582.877;37017.980;   -5.218;48244.254
583.459;34725.090;   -8.679;47437.895
584.042;32684.090;  -10.709;46943.219
584.624;33226.555;  -11.669;46792.227
585.206;32824.047;   -8.218;46557.250
585.789;32731.598;  -10.569;45793.773
586.371;35413.102;  -11.859;43836.391
586.953;35892.168;  -10.719;42972.492
587.536;37201.961;   -7.198;42487.211
588.118;37516.770;   -8.720;42086.414
588.700;33867.992;  -10.439;43389.930
589.282;32958.652;   -9.198;43646.039
589.864;33779.586;   -9.199;43438.109
590.446;34880.930;  -11.319;43151.926
591.028;34917.941;  -11.159;42781.867
591.610;33924.047;  -11.779;42839.098
592.192;31310.018;   -7.668;42820.402
592.774;29729.834;  -11.949;40724.277
593.356;28472.834;  -12.129;39874.789
593.937;27334.186;  -10.669;39980.648
594.519;29399.361;   -6.509;42069.633
595.101;31582.617;  -10.849;42976.031
595.683;31693.402;  -11.679;44084.441
596.264;32720.873;   -9.049;43478.797
596.846;32311.670;   -8.849;43803.672
597.427;32246.672;   -9.570;42986.934
598.009;33877.199;  -12.620;42832.219
598.591;34393.105;  -10.039;42580.086
599.172;33704.539;  -10.369;43061.805
599.753;33954.918;   -9.140;41691.469
600.335;35495.410;  -11.430;40692.520
600.916;33602.863;   -9.939;39982.422
601.498;30943.119;   -8.479;40318.617
602.079;29334.932;  -10.920;40670.609
602.660;29165.189;  -11.480;41450.898
603.241;30853.838;  -11.699;41137.738
603.823;29649.230;   -9.579;38868.797
604.404;29001.115;  -10.620;38182.785
604.985;30781.232;  -10.450;38078.047
605.566;30796.846;   -9.129;38056.633
606.147;30888.227;   -7.510;37020.418
606.728;32403.408;  -10.660;37883.359
607.309;31041.346;  -11.740;38748.273
607.890;30524.418;   -9.759;38850.230
608.471;30004.361;   -8.250;37457.918
609.051;29102.143;   -9.240;36066.457
609.632;28007.439;  -12.120;35991.074
610.213;28716.150;   -9.110;37402.641
610.794;29495.533;   -8.030;38383.363
611.374;29167.135;   -8.110;40562.387
611.955;29750.674;  -13.560;38533.727
612.536;31133.443;  -11.400;36951.789
613.116;31018.117;   -8.070;37197.891
613.697;31351.930;  -10.830;38411.125
614.277;29567.445;  -11.641;38673.938
614.858;30323.900;  -13.310;37075.863
615.438;29588.371;   -7.460;35092.906
616.019;27047.547;   -7.601;33666.301
616.599;27730.139;  -12.020;34189.023
617.179;29532.734;  -11.780;36952.047
617.760;30520.352;   -8.570;39582.574
618.340;31557.316;  -11.471;38943.977
618.920;32760.674;  -11.170;37594.156
619.500;32569.691;  -11.071;37866.938
620.080;31596.377;   -7.750;37869.043
620.660;32714.908;  -12.711;36868.617
621.241;34127.227;  -10.211;36352.309
621.821;34386.637;  -10.961;35459.520
622.401;33446.047;   -7.720;35207.414
622.980;32762.070;   -8.981;35980.422
623.560;31343.791;   -9.331;37351.328
624.140;29995.398;   -9.850;34388.582
624.720;24949.951;   -7.451;32368.764
625.300;21426.531;   -9.070;32638.629
625.880;24847.447;  -12.601;34599.035
626.459;28824.102;  -11.751;36831.738
627.039;31818.572;   -9.281;38299.098
627.619;31770.523;   -8.801;38289.574
628.198;30273.869;  -12.071;37220.695
628.778;29488.391;   -9.461;37632.563
629.357;30160.824;   -8.491;38003.012
629.937;30086.379;   -9.721;38402.039
630.516;29546.211;   -9.951;37868.801
631.096;29289.951;  -11.731;35760.410
631.675;31640.385;   -8.572;35225.219
632.254;36592.633;  -11.282;35130.289
632.834;36104.367;  -13.322;35794.570
633.413;34450.855;  -10.301;35788.922
633.992;31881.074;   -8.582;34532.863
634.571;32610.240;   -8.352;33590.113
635.151;35674.059;  -11.912;34943.863
635.730;34029.488;  -10.511;35352.523
636.309;30376.096;   -7.731;35366.605
636.888;27791.182;   -9.952;36165.637
637.467;28466.486;  -11.672;37515.902
638.046;30149.244;   -8.901;39288.695
638.625;33310.785;   -7.912;38279.699
639.204;33191.535;  -10.022;37741.598
639.782;31612.512;  -12.252;38364.551
640.361;27899.088;  -10.041;36740.621
640.940;25103.918;  -11.161;34950.082
641.519;25826.215;   -9.701;34137.398
642.097;28804.236;  -11.271;35654.258
642.676;31769.072;   -8.651;35637.957
643.255;32489.525;   -8.711;36567.074
643.833;31634.869;   -9.581;37809.434
644.412;31519.389;  -13.711;37337.293
644.990;30544.090;  -11.811;37018.531
645.569;30532.453;   -9.411;36518.469
646.147;29599.900;  -10.291;36186.430
646.726;29427.568;  -12.401;36267.688
647.304;30844.535;  -10.411;36647.625
647.882;32598.621;   -9.651;39286.742
648.461;34177.094;   -9.631;39157.703
649.039;32442.055;  -11.881;35412.883
649.617;31756.977;   -9.661;34744.918
650.195;31438.420;   -9.301;35403.098
650.773;30019.273;  -10.511;35053.797
651.352;27450.137;  -11.521;33756.816
651.930;25011.105;  -12.211;31868.773
652.508;23463.996;   -9.171;33121.551
653.086;27453.889;   -9.371;33564.793
653.663;30496.174;  -13.161;34054.668
654.241;29167.141;  -13.031;35693.309
654.819;30735.180;   -9.371;36422.906
655.397;30973.398;  -10.511;38213.484
655.975;30545.418;  -10.371;39507.625
656.553;30326.176;  -10.051;39498.223
657.130;28800.301;  -10.061;40395.480
657.708;27986.324;   -9.561;39242.020
658.286;27993.549;  -11.511;38920.020
658.863;29405.354;  -10.261;40202.898
659.441;32546.082;   -7.531;39677.938
660.018;32127.500;   -9.501;40413.355
660.596;30965.506;  -13.301;39931.414
661.173;32917.098;  -11.211;39604.531
661.750;33013.750;   -9.951;39700.070
662.328;31597.725;   -9.390;39292.809
662.905;30618.957;  -11.330;38235.648
663.482;26543.357;   -9.050;36212.305
664.060;24608.303;   -8.240;35944.945
664.637;27309.779;  -10.050;35170.785
665.214;29192.512;  -11.760;34197.523
665.791;30785.787;  -10.530;34549.520
666.368;29647.313;   -9.690;35118.578
666.945;30213.908;   -9.320;36019.418
667.522;31987.637;  -11.860;36048.438
668.099;31614.357;  -10.770;36243.914
668.676;30311.504;   -6.260;35958.875
669.253;29051.041;   -7.000;37384.730
669.830;29744.689;  -10.190;36779.629
670.407;29499.186;   -9.550;35231.289
670.984;29212.982;   -9.260;35544.270
671.560;29867.578;   -9.280;35466.867
672.137;29181.301;  -11.810;34280.863
672.714;30023.318;  -11.490;34632.863
673.290;30733.555;   -7.740;35135.422
673.867;30800.197;  -10.660;36114.480
674.443;30844.246;  -12.230;36152.859
675.020;29052.738;  -10.450;35327.238
675.596;30085.959;   -9.260;35795.176
676.173;30625.955;  -10.780;35430.355
676.749;30311.072;  -13.690;33549.516
677.326;30234.658;  -11.980;32210.012
677.902;30177.799;   -8.630;32068.871
678.478;29501.709;  -10.730;32583.891
679.054;28801.775;  -10.520;32088.928
679.631;29171.900;  -11.920;30978.848
680.207;30840.945;   -7.490;33160.887
680.783;32510.063;   -9.860;35570.363
681.359;31535.967;  -13.380;36125.184
681.935;30937.750;  -12.480;35240.922
682.511;30261.898;   -7.900;34429.961
683.087;30268.852;   -7.710;34463.680
683.663;29706.926;  -11.480;34648.898
684.239;28535.133;  -14.090;34546.457
684.815;28236.420;   -7.560;35586.375
685.390;28604.508;   -9.910;35821.895
685.966;29157.516;  -11.159;35085.871
686.542;31582.195;  -11.169;34198.230
687.118;33754.617;   -5.959;32847.707
687.693;34004.090;  -10.329;32794.027
688.269;33723.516;  -12.059;33072.367
688.844;32088.582;  -10.909;33141.664
689.420;29987.811;   -8.019;33965.742
689.995;27682.645;   -8.399;34655.523
690.571;26238.498;  -10.949;33576.742
691.146;26512.990;   -9.619;32657.219
691.722;26019.150;   -8.999;32526.979
692.297;25751.457;  -11.589;33014.617
692.872;27489.811;  -11.739;34012.254
693.448;27185.498;  -11.059;34237.434
694.023;26343.248;  -10.139;34142.672
694.598;28225.023;   -9.029;34132.031
695.173;28617.752;  -13.319;34205.250
695.748;27944.082;  -10.169;32882.488
696.323;28218.953;   -8.339;32864.906
696.898;28494.818;   -8.169;33170.004
697.473;28318.813;  -12.309;32432.984
698.048;27697.840;  -10.989;31649.303
698.623;27504.473;   -9.329;30778.141
699.198;29383.777;   -9.849;31140.119
699.773;30376.678;  -12.329;31764.299
700.348;28667.953;  -10.389;31780.816
700.922;28672.748;   -9.269;32046.375
701.497;29655.064;   -9.329;32603.574
702.072;29920.547;  -10.789;34799.871
702.646;28518.900;  -10.839;35793.172
703.221;26274.863;   -9.099;35201.590
703.795;28480.793;  -10.939;34764.527
704.370;29009.420;  -12.859;34307.367
704.944;29449.447;  -11.559;33509.887
705.519;30264.563;   -7.939;31388.584
706.093;31634.127;  -10.499;31340.104
706.668;31995.525;  -11.289;32630.281
707.242;30888.047;  -11.509;32728.779
707.816;29250.396;   -9.639;32947.238
708.390;27709.783;  -11.429;33277.855
708.965;28112.598;  -11.869;33834.336
709.539;27923.082;  -11.689;33709.273
710.113;28449.678;  -10.478;33044.313
710.687;28107.197;  -10.228;31953.992
711.261;26488.926;  -13.698;30505.949
711.835;26349.752;  -13.378;30262.369
712.409;27054.047;   -9.698;31254.447
712.983;29012.990;  -11.898;32754.986
713.557;30068.912;  -15.138;34018.824
714.131;29622.961;  -14.098;34579.625
714.704;28567.721;   -9.958;33890.262
715.278;26307.934;  -10.028;33531.102
715.852;25249.334;  -11.148;33601.660
716.425;26045.289;   -9.068;33515.117
716.999;26817.875;  -10.038;33185.555
717.573;27775.953;   -9.798;33905.996
718.146;28888.496;  -12.378;35199.293
718.720;28899.627;  -11.918;35060.551
719.293;28362.516;   -8.088;34973.230
719.867;31287.686;  -10.888;36394.449
720.440;31184.270;  -11.938;36663.008
721.013;29517.313;  -12.818;35102.426
721.587;28061.881;  -10.298;33985.266
722.160;27029.363;  -10.048;33524.965
722.733;25913.496;  -12.108;32987.043
723.306;26155.326;  -10.818;33066.301
723.880;28614.207;   -8.908;33399.500
724.453;30770.551;   -9.878;33468.297
725.026;29904.990;  -11.188;33816.637
725.599;27076.994;  -11.678;32797.996
726.172;27209.145;   -9.618;33187.434
726.745;28234.496;   -8.258;35136.613
727.318;29547.924;  -12.978;35751.730
727.891;30170.578;  -12.148;35890.430
728.463;29868.166;   -8.968;34822.090
729.036;28704.266;  -10.188;32895.086
729.609;28952.205;  -11.788;31823.225
730.182;25877.578;  -11.788;31445.283
730.754;23457.146;  -10.268;32373.223
731.327;23627.990;   -9.998;33676.820
731.900;24038.885;  -12.228;33417.000
732.472;25379.156;  -13.848;31978.498
733.045;27371.764;   -8.698;30368.777
733.617;27427.613;  -10.607;30574.215
734.190;27159.719;  -11.507;31280.975
734.762;24406.232;  -13.647;31674.412
735.334;22545.855;   -9.767;31247.291
735.907;23158.551;   -9.897;29876.211
736.479;23358.816;  -11.637;29808.488
737.051;23024.570;   -9.567;30233.547
737.623;23895.379;   -8.187;31469.086
738.195;24503.170;  -11.187;31784.225
738.768;26382.025;  -12.337;32120.523
739.340;26844.775;  -12.227;32094.342
739.912;25751.701;  -11.057;31312.680
740.484;24225.424;  -10.207;31946.238
741.056;22972.830;  -10.047;32984.059
741.628;24768.592;  -13.627;33897.715
742.199;27006.109;   -7.177;33213.016
742.771;25326.066;  -10.797;31369.113
743.343;23090.082;  -11.997;31865.473
743.915;22086.469;  -12.867;32388.631
744.487;22035.902;   -7.617;31079.568
745.058;22074.920;   -9.557;30570.107
745.630;22451.525;   -9.877;29970.127
746.201;23411.494;  -14.177;29186.766
746.773;24117.939;   -9.237;28805.723
747.344;24059.225;   -9.847;29591.223
747.916;22620.895;  -11.657;31412.201
748.487;22663.496;  -10.587;32194.898
749.059;23711.900;   -8.707;32533.719
749.630;24338.273;  -10.537;32158.518
750.201;23349.383;  -11.687;30855.395
750.773;21629.184;  -11.647;28622.555
751.344;21640.631;   -7.147;28405.732
751.915;22991.326;   -9.757;28461.551
752.486;23076.201;  -12.427;27842.850
753.057;20802.861;  -12.227;27845.008
753.628;19505.547;  -10.417;27728.107
754.199;20587.318;  -11.767;27381.086
754.770;21586.865;  -11.187;25882.203
755.341;21583.289;  -10.507;25886.184
755.912;21719.004;   -9.387;26050.861
756.483;21285.756;  -10.647;26798.779
757.054;19536.410;  -11.837;27048.238
757.625;18195.816;  -12.716;26294.838
758.195;17831.479;   -9.666;26142.076
758.766;17530.055;   -8.656;26392.234
759.337;18305.381;  -12.856;26334.594
759.907;19938.275;  -13.366;27579.652
760.478;20850.578;   -8.576;28352.770
761.048;20321.197;  -10.526;27325.088
761.619;19477.779;  -11.116;26460.428
762.189;19480.330;  -12.136;26029.826
762.760;20507.703;   -9.456;26430.145
763.330;21714.340;   -7.136;26670.902
763.900;21246.516;  -11.786;26603.021
764.471;18665.695;  -11.546;25542.740
765.041;17402.555;   -8.096;24358.459
765.611;17453.426;   -8.876;23991.297
766.181;17845.891;  -12.196;24470.236
766.751;18796.506;  -11.636;24845.975
767.321;18573.586;  -10.156;24533.633
767.891;16665.912;  -11.766;24916.492
768.461;16100.778;  -14.936;24776.771
769.031;16581.391;  -12.356;24757.988
769.601;18205.125;   -7.526;24181.088
770.171;18098.813;  -10.766;23670.387
770.741;17187.395;  -13.176;22960.045
771.311;17286.609;  -10.616;22917.523
771.880;17697.885;   -9.576;23562.941
772.450;17384.652;  -10.336;24216.500
773.020;17347.795;  -13.516;24140.398
773.589;16667.658;  -13.466;24414.857
774.159;16017.234;   -8.686;23858.717
774.729;15643.578;   -9.476;22942.135
775.298;15207.376;  -13.666;22324.033
775.867;14825.988;  -11.716;21140.313
776.437;14976.989;   -9.906;20838.092
777.006;14804.339;  -12.166;20599.510
777.576;14655.146;  -12.356;20508.809
778.145;14693.975;  -11.646;20732.947
778.714;14575.043;   -8.226;21062.465
779.283;13846.183;   -9.556;20949.664
779.853;13321.256;  -14.116;20508.623
780.422;13800.864;  -11.506;20649.082
780.991;13377.948;   -9.556;21527.520
781.560;12194.078;   -9.095;22632.658
782.129;12060.802;  -12.135;23048.277
782.698;12103.283;  -10.865;23438.555
783.267;11664.502;   -9.335;23267.734
783.836;11562.333;  -11.045;22415.133
784.404;12661.105;  -13.865;20443.152
784.973;13309.790;  -13.095;19699.150
785.542;13192.758;  -11.575;19763.828
786.111;12943.104;   -9.705;20341.408
786.679;12436.769;  -12.105;20207.967
787.248;12175.112;  -12.455;19516.465
787.817;12029.372;  -11.535;18900.363
788.385;11688.054;   -9.765;17879.121
788.954;11138.542;  -14.005;17658.301
789.522;10591.560;  -11.955;17788.879
790.090;11114.634;  -10.135;18118.277
790.659;11540.416;  -10.975;18338.736
791.227;11035.830;  -13.375;18508.615
791.795;11454.383;  -12.375;17898.254
792.364;11867.788;  -10.725;17295.133
792.932;12256.205;   -9.715;16822.051
793.500;12405.561;  -12.675;17040.148
794.068;12596.754;  -13.495;17179.787
794.636;12759.507;  -10.885;16664.246
795.204;12136.490;  -11.045;16524.545
795.772;12215.997;  -13.175;17274.564
796.340;11748.468;  -12.445;17891.002
796.908;11538.183;   -9.735;17648.561
797.476;11429.782;   -9.815;17064.080
798.044;10986.045;  -13.985;16672.777
798.612;10192.755;  -13.115;17023.996
799.180; 9808.928;  -10.185;16561.615
799.747; 9702.688;   -9.055;15962.773
800.315; 9442.282;  -12.385;15296.992
800.883; 9131.401;  -15.035;14801.771
801.450; 9175.548;  -10.365;14534.430
802.018; 9274.166;   -9.855;14173.248
802.585; 9403.128;  -11.905;14029.547
803.153; 9418.747;  -11.585;13836.846
803.720; 9209.629;   -9.095;13567.324
804.287; 8750.598;   -9.135;13360.622
804.855; 8298.836;  -11.604;13681.981
805.422; 8188.767;  -11.794;13536.560
805.989; 8238.365;  -10.734;13355.958
806.556; 8401.470;  -10.444;13747.896
807.124; 8628.505;  -12.764;13987.376
807.691; 8588.745;  -12.964;14038.674
808.258; 8405.875;  -11.134;14120.152
808.825; 8085.583;   -9.854;13860.111
809.392; 8146.700;  -10.504;13268.790
809.959; 7648.537;  -13.054;12680.389
810.526; 7174.658;   -8.294;12427.308
811.093; 7204.389;   -8.394;12030.105
811.659; 7850.669;  -12.304;11653.664
812.226; 8406.192;  -13.944;11637.183
812.793; 8140.997;  -10.484;11611.521
813.360; 7517.662;  -10.144;11885.181
813.926; 7190.834;  -11.684;12770.539
814.493; 6957.059;  -13.644;12677.638
815.060; 6534.695;   -9.724;11974.336
815.626; 6498.602;   -9.854;11594.715
816.193; 6912.263;  -13.254;11579.474
816.759; 6940.764;  -13.204;11666.972
817.325; 6981.376;   -9.434;11325.530
817.892; 7325.995;  -10.134;11105.369
818.458; 7770.949;  -13.474;10843.928
819.024; 7393.319;  -11.854;10714.406
819.591; 7051.590;  -10.244;10469.165
820.157; 6814.275;  -10.704;10235.523
820.723; 6292.083;  -12.324;10847.563
821.289; 5981.741;   -9.444;11040.980
821.855; 5912.964;   -8.374;10357.100
822.421; 5913.740;  -10.234; 9978.918
822.987; 5912.099;  -13.294; 9754.177
823.553; 5579.047;  -10.884;10065.755
824.119; 5378.145;   -8.884;10036.294
824.685; 5464.949;   -6.784;10029.192
825.251; 5552.391;  -12.004;10199.230
825.816; 5518.179;  -11.474; 9820.189
826.382; 5285.336;   -9.174; 9297.248
826.948; 5465.564;   -9.214; 9381.347
827.513; 5884.175;  -10.774; 9450.726
828.079; 5723.984;  -11.924; 9472.444
828.645; 5114.751;  -10.543; 9292.643
829.210; 4978.528;  -10.533; 9065.341
829.776; 4954.758;  -10.753; 9132.620
830.341; 4844.326;  -10.173; 9092.878
830.906; 5027.113;  -10.743; 9078.557
831.472; 5376.893;  -11.113; 8534.535
832.037; 5136.625;  -10.603; 8677.874
832.602; 4604.879;  -13.323; 8628.692
833.167; 4356.299;  -10.823; 8879.031
833.733; 4304.905;  -10.113; 9189.790
834.298; 4446.841;  -13.583; 9052.608
834.863; 4527.626;  -12.703; 8895.087
835.428; 4512.350;  -10.523; 8824.266
835.993; 4358.012;   -6.963; 8845.385
836.558; 4170.186;  -10.763; 8888.563
837.123; 4281.816;   -9.903; 8966.582
837.688; 4525.810;   -9.913; 8617.860
838.253; 4793.604;  -10.283; 8590.699
838.817; 5012.285;  -12.963; 8443.797
839.382; 4927.618;  -14.243; 8799.356
839.947; 4598.801;  -10.733; 8810.595
840.511; 4295.500;   -9.383; 8796.394
841.076; 3918.915;  -12.563; 8347.231
841.641; 3966.955;  -12.953; 8224.330
842.205; 4061.073;   -7.043; 8223.349
842.770; 4157.360;   -8.163; 8622.107
843.334; 4314.302;  -12.503; 8410.386
843.898; 4245.426;  -11.693; 8337.465
844.463; 4258.676;  -10.203; 8506.283
845.027; 4049.110;   -9.533; 8280.962
845.591; 3869.734;  -13.443; 8231.141
846.156; 3859.992;  -13.143; 7969.179
846.720; 3749.099;   -9.433; 7768.278
847.284; 3633.156;  -11.033; 7630.957
847.848; 3508.833;  -10.403; 7472.395
848.412; 3427.255;  -11.553; 7437.394
848.976; 3483.666;   -8.393; 7674.592
849.540; 3418.609;   -8.713; 7836.011
850.104; 3526.469;  -12.463; 7913.669
850.668; 3893.663;  -12.973; 7694.508
851.232; 4002.567;  -10.793; 7756.887
851.796; 3837.264;  -10.662; 7926.545
852.359; 3534.835;  -13.082; 7827.844
852.923; 3369.186;  -12.192; 7641.163
853.487; 3194.484;  -11.912; 7342.501
854.050; 3156.705;  -10.892; 7042.820
854.614; 3314.233;  -13.992; 7151.338
855.177; 3450.588;  -11.732; 7105.077
855.741; 3488.999;   -8.962; 6989.675
856.304; 3368.957;   -9.442; 6596.634
856.868; 3312.354;  -14.192; 6356.272
857.431; 3403.893;  -12.702; 6468.571
857.995; 3522.841;   -9.942; 6373.210
858.558; 3532.715;   -9.112; 6324.448
859.121; 3255.151;  -12.932; 6408.327
859.684; 3121.658;  -13.442; 6347.886
860.247; 3240.556;  -10.632; 6321.264
860.810; 3255.260;  -11.272; 6301.903
861.374; 3002.413;   -9.832; 6607.881
861.937; 2744.461;  -11.762; 6408.200
862.500; 2741.678;   -9.722; 6572.639
863.062; 2921.643;  -10.512; 6387.297
863.625; 3097.182;  -11.232; 6190.836
864.188; 3261.136;  -14.112; 5807.254
864.751; 3317.369;  -11.302; 5682.413
865.314; 3204.268;  -10.112; 5547.492
865.876; 2981.681;  -12.182; 5500.150
866.439; 2958.776;  -10.722; 5415.909
867.002; 2915.289;   -9.252; 5501.567
867.564; 2711.649;   -9.572; 5413.946
868.127; 2490.027;  -13.142; 5160.325
868.689; 2377.091;  -12.902; 5133.183
869.252; 2285.131;   -9.732; 5252.382
869.814; 2194.866;   -9.432; 5297.141
870.377; 2208.268;  -11.552; 5390.919
870.939; 2280.243;   -9.052; 5599.898
871.501; 2352.637;  -10.982; 5248.336
872.063; 2356.996;  -12.292; 4854.235
872.626; 2311.600;  -14.912; 4817.074
873.188; 2334.781;  -13.112; 4987.732
873.750; 2304.565;  -13.442; 4868.651
874.312; 2195.973;   -9.402; 4779.330
874.874; 2097.983;  -11.062; 4866.348
875.436; 2011.401;  -13.931; 4718.887
875.998; 2006.470;   -9.561; 4660.005
876.560; 2039.327;  -11.321; 4462.964
877.122; 1982.950;  -12.221; 4145.042
877.683; 1883.804;  -12.191; 4056.481
878.245; 1810.630;  -12.101; 3950.740
878.807; 1857.930;   -8.971; 4058.958
879.369; 1891.110;  -12.071; 3954.677
879.930; 1798.115;  -14.621; 3941.495
880.492; 1731.294;  -10.311; 4067.014
881.053; 1700.880;  -10.901; 3859.633
881.615; 1583.926;  -14.411; 3776.071
882.176; 1474.651;  -13.761; 3734.750
882.738; 1432.420;   -9.181; 3678.489
883.299; 1447.993;  -11.791; 3405.407
883.860; 1533.030;  -13.121; 3351.106
884.422; 1605.882;  -11.211; 3394.044
884.983; 1528.195;  -10.091; 3166.443
885.544; 1251.221;   -8.461; 3189.802
886.105;  916.982;  -12.361; 3160.360
886.666;  686.116;  -14.141; 3093.059
887.227;  596.293;  -11.361; 2941.957
887.788;  581.540;  -11.401; 2974.836
888.349;  589.093;  -13.791; 2721.214
888.910;  628.062;  -13.191; 2696.493
889.471;  666.863;   -9.881; 2560.172
890.032;  679.945;   -9.881; 2558.190
890.593;  681.774;  -10.371; 2567.669
891.153;  676.089;  -13.301; 2460.307
891.714;  650.216;  -11.431; 2372.046
892.275;  629.355;  -11.291; 2309.505
892.835;  604.779;  -11.471; 2382.543
893.396;  564.359;  -11.541; 2295.502
893.956;  518.676;  -11.181; 2162.420
894.517;  488.952;  -11.741; 2125.439
895.077;  484.626;  -11.671; 2086.978
895.638;  487.097;  -11.311; 2126.316
896.198;  462.229;   -9.831; 1838.275
896.758;  424.069;   -8.421; 1892.813
897.319;  397.377;  -12.351; 1792.232
897.879;  383.412;  -13.511; 1762.751
898.439;  359.715;  -12.001; 1661.149
898.999;  338.537;  -10.180; 1781.468
899.559;  332.720;  -12.030; 1703.347
900.119;  327.894;  -15.710; 1537.525
900.679;  324.594;   -8.900; 1638.384
901.239;  310.980;   -8.340; 1527.902
901.799;  300.475;  -13.910; 1456.441
902.359;  295.094;  -13.460; 1357.140
902.919;  289.918;  -11.490; 1331.118
903.479;  277.600;  -12.110; 1317.257
904.038;  257.572;  -11.720; 1262.595
904.598;  243.882;  -13.610; 1152.034
905.158;  239.633;  -11.040; 1240.893
905.717;  234.445;  -10.900; 1233.691
906.277;  223.425;  -15.080; 1217.330
906.836;  213.353;  -13.380; 1222.408
907.396;  204.183;  -10.780; 1193.047
907.955;  195.070;   -8.500; 1182.526
908.515;  186.510;  -12.760; 1099.364
909.074;  181.010;  -11.900; 1092.863
909.633;  176.804;   -8.950; 1069.121
910.192;  174.401;   -8.770; 1196.460
910.752;  168.039;  -12.390; 1029.960
911.311;  165.902;  -13.680; 1009.780
911.870;  164.136;  -12.370;  971.460
912.429;  165.199;  -10.900; 1094.080
912.988;  164.141;  -11.690; 1081.060
913.547;  160.040;  -13.240;  940.380
914.106;  155.571;  -11.990;  999.420
914.665;  152.262;   -9.990;  984.020
915.224;  151.396;  -12.880; 1035.760
915.782;  151.199;  -12.350;  922.560
916.341;  151.188;   -9.110; 1049.840
916.900;  146.924;   -9.270;  925.260
917.458;  145.557;  -13.240;  884.220
918.017;  144.807;  -13.550;  942.600
918.576;  145.373;  -12.320;  904.440
919.134;  143.706;  -11.490;  837.980
919.693;  140.645;  -13.670;  893.060
920.251;  139.325;  -15.470;  876.500
920.809;  138.849;  -11.290;  839.580
921.368;  137.633;  -10.210;  885.360
921.926;  137.010;  -12.140;  842.940
922.484;  135.493;  -13.080;  903.360
923.042;  135.173;  -11.720;  880.340
923.601;  138.567;   -7.480;  998.680
924.159;  136.076;  -11.570;  935.560
924.717;  133.051;  -13.840;  841.080
925.275;  133.052;  -10.640;  903.240
925.833;  132.553;  -11.540;  779.320
926.391;  134.047;  -12.960;  938.380
926.949;  132.638;  -14.130;  857.680
927.506;  132.549;  -11.750;  903.500
928.064;  133.653;  -10.250;  877.580
928.622;  131.749;  -13.030;  880.100
929.180;  131.325;  -13.400;  814.180
929.737;  133.389;  -10.700;  808.540
930.295;  136.360;  -10.070;  928.480
930.853;  138.116;  -11.960;  849.100
931.410;  138.622;  -13.120;  821.120
931.968;  138.313;  -10.770;  940.660
932.525;  137.879;  -10.680;  909.380
933.082;  138.060;  -13.130;  811.440
933.640;  138.849;  -13.210;  925.900
934.197;  138.046;  -11.060;  886.360
934.754;  138.159;   -9.580;  897.780
935.312;  141.149;  -14.000;  863.340
935.869;  145.950;  -10.710; 1012.980
936.426;  146.682;   -9.860;  872.800
936.983;  146.843;   -9.710;  889.020
937.540;  145.484;  -13.990;  838.280
938.097;  144.212;  -14.040;  940.120
938.654;  145.335;  -10.310;  898.860
939.211;  147.957;  -10.560;  952.480
939.768;  151.563;  -13.900;  915.420
940.324;  153.953;  -14.760;  904.200
940.881;  155.678;  -10.370;  878.500
941.438;  156.771;   -8.260; 1021.200
941.995;  153.263;  -12.540;  992.560
942.551;  150.008;  -14.670;  875.620
943.108;  150.640;  -10.450;  937.920
943.664;  152.678;  -10.750;  869.340
944.221;  156.226;  -11.550; 1088.140
944.777;  152.912;  -14.770;  869.680
945.334;  154.077;  -12.820;  884.840
945.890;  155.595;  -10.130;  946.480
946.446;  156.390;  -13.470;  947.020
947.003;  157.014;  -12.120;  964.940
947.559;  160.307;   -9.980; 1063.040
948.115;  160.035;   -9.080; 1026.540
948.671;  157.126;  -10.830;  967.300
949.227;  154.743;  -12.440;  859.560
949.783;  152.145;  -12.910;  858.900
950.339;  153.911;  -10.270;  991.000
950.895;  153.755;  -13.630; 1023.840
951.451;  152.978;  -15.100;  925.280
952.007;  153.956;  -11.330;  998.540
952.563;  153.775;  -10.580;  937.780
953.118;  152.914;  -13.440;  904.940
953.674;  152.285;  -12.710;  935.780
954.230;  152.415;  -10.350;  949.640
954.785;  150.125;   -9.190;  936.640
955.341;  147.692;  -11.200;  998.160
955.897;  145.842;  -16.560;  834.660
956.452;  147.219;  -12.570;  953.840
957.008;  146.053;   -7.970; 1083.640
957.563;  143.174;  -11.940; 1009.540
958.118;  139.238;  -13.450;  877.700
958.674;  138.871;  -12.030;  946.780
959.229;  140.086;   -9.410; 1013.980
959.784;  137.915;  -12.000;  832.400
960.339;  136.996;  -14.780; 1001.280
960.894;  134.707;   -9.860;  963.760
961.449;  130.525;   -9.970;  859.960
962.004;  130.219;  -10.900; 1212.840
962.559;  125.198;  -13.150;  860.140
963.114;  122.763;  -13.740;  742.480
963.669;  122.400;   -9.820;  915.500
964.224;  120.326;  -13.890;  874.340
964.779;  119.421;  -12.600;  828.420
965.334;  120.609;  -10.950; 1017.860
965.888;  120.078;  -11.170;  875.360
966.443;  122.695;  -12.540;  972.380
966.998;  122.308;  -15.780;  819.460
967.552;  120.886;   -9.760;  908.380
968.107;  117.798;   -9.060;  868.300
968.661;  118.217;  -11.950;  922.440
969.216;  119.094;  -12.800;  856.280
969.770;  118.393;  -11.210;  917.200
970.324;  117.970;  -11.610;  923.140
970.879;  114.209;  -11.370;  947.180
971.433;  111.085;  -12.540;  952.720
971.987;  106.846;  -11.320;  895.340
972.541;  103.542;  -10.720;  917.100
973.095;  103.446;   -9.680; 1009.460
973.649;  101.695;  -11.440;  809.480
974.203;  101.034;  -11.210;  829.040
974.757;  101.500;  -10.240;  855.220
975.311;  100.871;  -13.720;  872.600
975.865;  100.176;  -13.770;  881.820
976.419;   98.233;  -11.690;  857.400
976.973;   98.113;   -9.510;  849.620
977.526;   99.808;  -12.620;  949.920
978.080;   99.099;  -12.010;  796.780
978.634;  100.887;  -10.170;  921.320
979.187;   99.020;   -9.020;  905.400
979.741;   95.539;   -9.820; 1018.380
980.294;   90.762;  -14.870;  789.160
980.848;   88.672;  -12.380;  717.220
981.401;   91.367;  -10.350;  816.540
981.955;   93.420;  -13.720;  844.300
982.508;   92.052;  -11.490;  746.340
983.061;   92.868;  -10.000;  915.260
983.615;   88.229;  -11.480;  798.800
984.168;   85.359;  -13.220;  770.080
984.721;   84.380;  -13.960;  880.760
985.274;   84.278;  -10.870;  867.500
985.827;   82.766;   -9.790;  834.220
986.380;   80.549;  -13.120;  721.340
986.933;   79.771;  -12.450;  864.800
987.486;   78.241;  -10.210;  861.920
988.039;   77.123;   -8.430;  863.100
988.591;   74.444;  -10.520;  893.260
989.144;   72.587;  -14.860;  737.260
989.697;   71.671;  -13.080;  758.740
990.250;   72.575;  -10.150;  858.100
990.802;   71.571;  -13.430;  755.860
991.355;   72.135;  -12.750;  974.880
991.907;   70.117;  -12.040;  864.320
992.460;   68.098;  -11.330;  753.760
993.012;   66.885;  -13.610;  749.540
993.565;   65.521;  -13.460;  711.360
994.117;   67.647;   -9.360;  950.780
994.669;   63.213;  -11.300;  701.320
995.221;   62.236;  -13.540;  791.920
995.774;   59.856;  -13.430;  787.580
996.326;   59.212;  -12.520;  740.220
996.878;   58.421;  -10.950;  838.420
997.430;   56.068;  -14.300;  699.860
997.982;   54.982;  -13.760;  750.140
998.534;   55.370;  -11.530;  739.060
999.086;   54.042;  -10.310;  738.220
999.638;   52.456;  -12.530;  661.380
1000.190;   51.805;  -11.840;  699.320
1000.741;   51.760;  -10.260;  742.700
1001.293;   52.045;   -8.860;  686.020
1001.845;   49.737;  -13.700;  676.640
1002.396;   49.662;  -12.100;  743.400
1002.948;   49.227;  -12.760;  737.400
1003.500;   47.723;  -10.380;  723.780
1004.051;   49.387;  -11.900;  907.580
1004.603;   46.458;  -12.250;  791.820
1005.154;   42.941;  -13.210;  608.980
1005.705;   42.739;  -10.950;  723.960
1006.257;   41.452;  -13.880;  707.220
1006.808;   40.861;  -12.840;  685.460
1007.359;   40.448;  -10.570;  763.240
1007.910;   39.978;   -9.620;  646.640
1008.461;   39.936;  -13.630;  732.940
1009.013;   38.944;  -17.200;  588.340
1009.564;   40.199;  -10.200;  793.520
1010.115;   37.795;  -12.570;  597.040
1010.665;   36.816;  -15.150;  602.160
1011.216;   36.937;  -14.480;  667.920
1011.767;   36.999;  -11.340;  697.920
1012.318;   37.154;   -9.780;  736.980
1012.869;   35.515;  -12.380;  679.000
1013.419;   34.582;  -15.560;  603.120
1013.970;   35.485;  -11.010;  666.640
1014.521;   34.471;  -11.610;  620.620
1015.071;   35.659;  -13.450;  670.380
1015.622;   35.475;  -13.870;  635.460
1016.172;   34.256;  -11.610;  596.820
1016.723;   33.332;  -12.120;  614.380
1017.273;   33.289;  -13.620;  604.160
1017.823;   33.443;  -14.140;  650.340
1018.374;   32.985;  -12.800;  611.760
1018.924;   33.247;  -12.340;  716.880
1019.474;   33.188;  -11.410;  718.880
1020.024;   32.175;  -14.770;  657.580
1020.574;   33.026;   -9.780;  726.160
1021.124;   32.935;   -8.560;  673.580
1021.674;   31.378;  -15.190;  559.120
1022.224;   32.432;  -13.530;  708.940
1022.774;   32.431;  -13.280;  668.820
1023.324;   32.259;  -10.690;  753.520
1023.874;   33.345;  -10.240;  875.760
1024.423;   30.963;  -12.540;  613.700
1024.973;   30.503;  -10.010;  610.760
1025.523;   29.782;  -10.550;  620.960
1026.072;   29.376;  -13.560;  606.420
1026.622;   29.419;  -15.120;  675.740
1027.172;   29.840;  -11.260;  715.660
1027.721;   28.927;  -11.410;  601.220
1028.270;   29.852;  -13.530;  663.400
1028.820;   28.588;  -13.680;  638.080
1029.369;   29.063;  -13.520;  612.700
1029.918;   29.286;  -10.980;  649.840
1030.468;   28.284;  -13.530;  564.780
1031.017;   28.181;  -13.170;  634.800
1031.566;   28.176;  -12.200;  608.900
1032.115;   28.739;   -9.960;  694.500
1032.664;   27.022;  -13.210;  596.480
1033.213;   28.504;  -12.500;  735.420
1033.762;   27.880;  -11.910;  635.620
1034.311;   27.141;   -9.640;  677.220
1034.860;   27.667;  -13.310;  691.000
1035.408;   27.488;  -11.830;  722.720
1035.957;   27.546;  -12.000;  719.540
1036.506;   25.799;  -11.690;  530.800
1037.055;   28.393;  -10.990;  844.320
1037.603;   26.218;  -15.120;  664.000
1038.152;   24.188;  -12.450;  534.760
1038.700;   25.361;  -10.560;  585.740
1039.249;   25.287;  -11.080;  681.220
1039.797;   25.094;  -12.540;  633.360
1040.345;   25.166;  -11.920;  705.420
1040.894;   25.185;  -11.410;  625.300
1041.442;   25.131;  -14.320;  632.200
1041.990;   23.735;  -16.240;  559.160
1042.538;   24.567;  -11.680;  536.180
1043.087;   23.797;  -10.760;  570.860
1043.635;   24.211;  -11.850;  670.500
1044.183;   23.226;  -15.480;  586.400
1044.731;   23.208;  -11.770;  576.000
1045.279;   23.163;  -13.090;  674.920
1045.827;   25.010;  -12.440;  892.400
1046.374;   22.988;  -13.840;  515.420
1046.922;   22.664;  -13.220;  590.580
1047.470;   23.873;  -10.230;  691.300
1048.018;   23.194;  -14.590;  647.960
1048.565;   23.339;  -12.050;  708.600
1049.113;   22.124;  -11.650;  557.000
1049.660;   22.533;  -10.510;  629.660
1050.208;   22.612;  -13.310;  675.640
1050.755;   21.705;  -15.900;  606.580
1051.303;   23.082;  -11.430;  686.820
1051.850;   21.325;   -8.480;  635.120
1052.397;   19.560;  -15.010;  473.960
1052.945;   20.575;  -13.960;  617.760
1053.492;   22.592;  -13.150;  741.840
1054.039;   22.114;   -9.630;  720.180
1054.586;   20.277;  -13.680;  557.240
1055.133;   21.143;  -14.570;  693.140
1055.680;   21.075;  -13.820;  646.620
1056.227;   19.844;  -11.730;  542.780
1056.774;   21.106;  -12.480;  794.980
1057.321;   18.919;  -13.930;  523.260
1057.868;   20.781;  -11.690;  651.320
1058.415;   19.885;   -9.520;  651.980
1058.961;   19.792;  -13.160;  678.940
1059.508;   19.188;  -12.920;  643.820
1060.055;   19.347;  -11.920;  581.780
1060.601;   19.988;  -11.500;  624.300
1061.148;   19.190;  -14.330;  616.820
1061.694;   18.134;  -16.870;  592.580
1062.241;   19.528;  -10.330;  596.320
1062.787;   19.628;  -10.620;  663.140
1063.334;   20.346;  -10.110;  808.560
1063.880;   18.712;  -13.400;  668.360
1064.426;   18.574;  -10.680;  706.820
1064.972;   17.758;   -9.920;  601.340
1065.518;   17.208;  -10.980;  566.640
1066.065;   18.177;  -14.890;  624.460
1066.611;   18.111;  -12.870;  598.800
1067.157;   18.408;  -12.950;  641.860
1067.703;   17.502;  -13.540;  668.480
1068.249;   17.422;  -13.540;  605.220
1068.794;   17.688;  -12.600;  626.880
1069.340;   16.549;  -10.620;  578.960
1069.886;   16.634;  -12.830;  590.700
1070.432;   16.350;  -14.870;  541.720
1070.977;   16.738;  -11.980;  601.080
1071.523;   16.482;   -8.200;  573.060
1072.068;   16.511;  -12.330;  582.000
1072.614;   16.081;  -16.370;  527.760
1073.160;   17.237;  -11.100;  687.040
1073.705;   15.940;  -10.480;  572.520
1074.250;   15.431;  -14.520;  559.900
1074.796;   16.893;  -11.460;  655.160
1075.341;   16.761;  -11.950;  664.100
1075.886;   15.807;  -11.460;  594.240
1076.431;   15.263;  -13.770;  649.880
1076.976;   14.953;  -12.680;  639.220
1077.521;   14.927;  -13.170;  583.080
1078.067;   14.538;  -10.860;  579.400
1078.612;   14.468;  -13.920;  661.620
1079.156;   14.353;  -13.880;  601.540
1079.701;   15.666;  -13.120;  693.260
1080.246;   15.988;   -9.940;  696.300
1080.791;   14.855;  -14.740;  625.020
1081.336;   14.406;  -13.750;  659.320
1081.880;   14.163;  -13.400;  649.680
1082.425;   14.131;  -12.220;  573.480
1082.970;   14.802;  -11.610;  717.040
1083.514;   13.617;  -13.580;  597.000
1084.059;   13.614;  -12.810;  586.720
1084.603;   13.352;  -12.320;  565.840
1085.147;   13.194;  -13.190;  645.220
1085.692;   14.566;  -12.480;  716.800
1086.236;   12.797;  -13.020;  503.140
1086.780;   14.463;   -9.190;  751.440
1087.325;   14.216;  -12.480;  654.620
1087.869;   13.403;  -12.450;  610.700
1088.413;   13.793;  -12.240;  705.040
1088.957;   11.915;   -9.020;  543.400
1089.501;   13.939;  -10.320;  766.640
1090.045;   12.798;  -12.720;  726.480
1090.589;   10.714;  -13.690;  569.920
1091.133;   12.535;  -10.020;  673.340
1091.676;   11.845;  -12.330;  591.940
1092.220;   11.861;  -14.970;  600.920
1092.764;   12.989;  -12.430;  706.960
1093.307;   13.109;   -9.800;  673.780
1093.851;   10.944;  -14.970;  556.540
1094.395;   11.743;  -15.310;  683.140
1094.938;   11.677;  -10.370;  632.520
1095.482;   11.457;  -11.050;  559.800
1096.025;   11.752;  -11.840;  710.880
1096.568;   12.655;  -12.840;  779.280
1097.112;    9.674;  -14.700;  508.180
1097.655;   10.615;   -8.720;  603.000
1098.198;   10.128;  -13.610;  600.180
1098.741;   10.084;  -13.350;  612.860
1099.285;   11.581;  -11.230;  657.300
1099.828;    9.309;  -11.840;  439.400
1100.371;   10.577;  -10.840;  608.160
1100.914;   10.554;  -14.190;  682.660
1101.457;   10.345;  -11.240;  679.900
1101.999;    9.812;  -11.270;  584.680
1102.542;    9.660;  -11.480;  641.440
1103.085;    9.711;  -11.750;  658.500
1103.628;   10.566;  -11.400;  762.060
1104.170;    9.840;  -10.490;  588.280
1104.713;    9.649;  -10.600;  646.700
1105.256;    9.017;  -14.360;  557.440
1105.798;    8.354;  -13.210;  499.980
1106.341;   10.537;  -10.270;  728.900
1106.883;    8.491;  -12.200;  521.340
1107.425;    8.226;  -13.110;  668.180
1107.968;    8.620;  -12.840;  612.380
1108.510;    9.117;   -6.480;  684.960
1109.052;    7.908;  -13.940;  612.620
1109.594;    7.840;  -13.690;  554.440
1110.136;    8.674;  -11.880;  643.220
1110.679;    7.805;   -9.500;  633.080
1111.221;    8.365;  -14.160;  604.460
1111.763;    7.228;  -13.980;  559.220
1112.304;    7.568;  -13.880;  547.140
1112.846;    8.556;  -12.210;  666.240
1113.388;   10.465;  -11.390;  942.180
1113.930;    7.664;  -14.540;  694.200
1114.472;    7.569;  -12.640;  606.540
1115.013;    6.151;  -11.620;  551.280
1115.555;    6.773;  -13.640;  587.100
1116.097;    6.035;  -15.380;  579.480
1116.638;    7.505;  -12.640;  684.600
1117.180;    7.306;   -9.850;  667.740
1117.721;    6.771;  -13.690;  568.580
1118.262;    7.143;  -12.680;  677.960
1118.804;    7.813;  -12.530;  637.340
1119.345;    6.219;  -11.690;  578.400
1119.886;    7.930;  -13.380;  704.040
1120.427;    6.247;  -14.070;  589.020
1120.969;    5.899;  -13.500;  597.920
1121.510;    5.239;  -11.480;  563.060
1122.051;    6.218;  -12.830;  723.580
1122.592;    5.104;  -14.290;  655.420
1123.133;    5.022;  -12.400;  547.940
1123.673;    6.491;  -10.130;  706.480
1124.214;    5.360;  -12.930;  612.460
1124.755;    6.084;  -14.380;  639.460
1125.296;    5.200;  -14.000;  627.320
1125.836;    6.587;  -10.070;  691.500
1126.377;    5.410;  -12.640;  599.660
1126.918;    5.839;  -12.960;  614.980
1127.458;    5.230;  -13.350;  622.220
1127.999;    5.261;  -10.750;  656.980
1128.539;    6.361;  -12.350;  694.240
1129.079;    5.070;  -14.860;  632.720
1129.620;    4.325;  -13.840;  558.100
1130.160;    4.611;  -12.330;  539.480
1130.700;    5.326;  -14.530;  640.840
1131.240;    5.193;  -12.530;  643.700
1131.781;    4.046;  -14.450;  619.680
1132.321;    4.405;   -9.790;  599.120
1132.861;    3.235;  -14.860;  564.200
1133.401;    2.924;  -14.290;  593.940
1133.941;    4.504;  -11.750;  626.280
1134.481;    3.518;   -9.920;  597.580
1135.020;    3.608;  -12.290;  609.160
1135.560;    3.694;  -11.650;  674.940
1136.100;    3.119;  -16.270;  501.160
1136.640;    2.963;  -10.890;  510.480
1137.179;    2.784;  -14.180;  537.960
1137.719;    3.146;  -16.250;  605.400
1138.258;    3.571;  -14.230;  587.360
1138.798;    4.488;   -9.090;  663.780
1139.337;    2.318;  -15.130;  482.840
1139.877;    2.788;  -13.680;  642.360
1140.416;    4.987;  -11.320;  878.060
1140.955;    2.819;  -10.860;  535.380
1141.494;    2.799;  -12.920;  669.280
1142.034;    2.367;  -13.930;  583.520
1142.573;    3.797;  -11.440;  646.280
1143.112;    2.629;  -12.000;  553.480
1143.651;    2.408;  -13.670;  536.480
1144.190;    3.218;  -12.730;  691.640
1144.729;    2.753;  -14.560;  607.420
1145.267;    2.717;  -11.830;  584.900
1145.806;    2.812;  -12.230;  637.040
1146.345;    2.484;  -14.130;  635.020
1146.884;    1.883;  -11.590;  622.500
1147.422;    1.409;  -12.550;  533.060
1147.961;    3.242;  -11.180;  708.460
1148.500;    2.012;  -11.510;  669.720
1149.038;    3.253;  -11.640;  632.500
1149.577;    2.584;  -10.130;  698.640
1150.115;    0.035;  -13.970;  452.280
1150.653;    2.189;  -14.520;  607.340
1151.192;    2.001;  -12.810;  552.920
1151.730;    1.944;   -9.100;  652.560
1152.268;    1.248;  -12.220;  589.520
1152.806;    0.790;  -14.140;  571.180
1153.344;   -0.008;  -12.350;  577.640
1153.882;    1.497;   -8.980;  600.060
1154.421;    0.037;  -15.190;  470.620
1154.958;    0.391;  -15.210;  595.240
1155.496;    1.718;  -12.850;  645.280
1156.034;    1.580;   -9.940;  721.880
1156.572;    2.119;  -13.570;  667.060
1157.110;   -0.134;  -14.590;  473.940
1157.647;    1.059;  -13.030;  676.960
1158.185;    0.088;  -12.140;  564.320
1158.723;   -1.647;  -14.390;  509.200
1159.260;    0.530;  -14.090;  701.700
1159.798;    0.973;  -11.920;  658.160
1160.335;    0.752;  -11.110;  631.820

