gmr_left
Integration time [ms]: 2924.932
Averaging Nr. [scans]: 20
Smoothing Nr. [pixels]: 0
Data measured with spectrometer [name]: 7414430SP
Wave   ;Sample   ;Dark     ;Reference
[nm]   ;[counts] ;[counts] ;[counts] 

288.544; 4071.432; 4004.872;    6.613
289.143; 3346.296; 3299.256;   14.216
289.742; 4342.632; 4251.540;   11.816
290.341; 4133.098; 4111.361;   -4.936
290.940; 3782.997; 3777.373;    0.852
291.538; 4784.523; 4707.574;    1.792
292.137; 4223.459; 4170.812;    6.262
292.736; 5519.397; 5393.361;    8.164
293.335; 3866.272; 3778.989;   -6.418
293.934; 4168.398; 4117.811;   -2.904
294.532; 5917.634; 5801.267;   -5.162
295.131; 4660.742; 4640.547;  -10.283
295.730; 4506.064; 4500.288;  -16.141
296.328; 4352.485; 4365.994;  -14.740
296.927; 4318.820; 4342.634;   -8.768
297.525; 4312.738; 4336.466;  -15.255
298.124; 3481.852; 3531.862;  -22.063
298.722; 4198.107; 4214.137;  -14.796
299.321; 3868.132; 3899.753;  -10.466
299.919; 4157.737; 4130.490;  -10.979
300.518; 3791.476; 3843.040;  -12.077
301.116; 3762.475; 3792.590;  -13.509
301.715; 4029.330; 4046.269;  -11.939
302.313; 3875.197; 3893.503;  -15.424
302.911; 4119.787; 4135.330;  -19.833
303.509; 5448.440; 5368.340;   -3.567
304.108; 4255.390; 4284.731;   -9.553
304.706; 4581.483; 4613.959;   -8.582
305.304; 4618.585; 4704.674;  -12.348
305.902; 4401.326; 4461.188;  -14.411
306.500; 4098.209; 4117.403;   -7.194
307.098; 4241.946; 4232.906;   -9.322
307.696; 4527.034; 4587.237;  -19.192
308.294; 4156.723; 4212.946;   -9.736
308.892; 4338.057; 4331.528;  -15.482
309.490; 4009.964; 4051.140;  -14.107
310.088; 4616.172; 4668.568;  -15.862
310.686; 4745.951; 4711.803;  -10.781
311.284; 4458.121; 4510.912;  -14.878
311.882; 4118.796; 4139.527;   -9.948
312.480; 3969.554; 3988.955;  -15.503
313.078; 4796.236; 4791.284;  -17.262
313.675; 3925.309; 3884.403;   -3.694
314.273; 4700.721; 4709.361;  -18.246
314.871; 3262.533; 3276.640;  -15.190
315.468; 3738.837; 3754.330;  -12.633
316.066; 3994.779; 4052.890;   -5.765
316.664; 3737.555; 3794.564;  -14.317
317.261; 5482.329; 5555.902;   -8.677
317.859; 4617.373; 4652.396;  -11.804
318.456; 5009.041; 5011.571;   -3.107
319.054; 4693.646; 4716.137;   -3.062
319.651; 4486.771; 4529.130;   -6.706
320.249; 4919.571; 4977.130;   -5.206
320.846; 4234.250; 4283.206;   -4.679
321.443; 5098.861; 5160.887;   -7.920
322.041; 4969.829; 5026.121;  -14.105
322.638; 4230.165; 4282.577;   -6.263
323.235; 3923.997; 3954.503;   -7.424
323.833; 4475.492; 4451.606;  -14.765
324.430; 3556.884; 3607.409;  -10.550
325.027; 5397.316; 5410.565;   -9.951
325.624; 3707.945; 3726.628;   -3.712
326.221; 4006.643; 3951.203;   -9.368
326.818; 4908.016; 4893.956;   -5.637
327.415; 4327.900; 4333.744;   -6.699
328.012; 3937.043; 3991.363;   -5.713
328.609; 4178.718; 4204.979;   -9.983
329.206; 4569.506; 4595.310;   -7.154
329.803; 4207.844; 4225.813;   -1.682
330.400; 3950.001; 3877.572;   -2.741
330.997; 4697.353; 4713.837;   -4.339
331.594; 4549.944; 4493.480;  -10.278
332.191; 4033.667; 4046.772;   -6.967
332.787; 4836.472; 4859.509;   -0.480
333.384; 4268.927; 4236.477;  -10.333
333.981; 4657.182; 4744.055;  -19.900
334.578; 3884.656; 3922.830;  -19.816
335.174; 4020.197; 4050.195;  -15.844
335.771; 4794.130; 4859.239;  -12.670
336.367; 3994.120; 4053.226;  -21.124
336.964; 4577.357; 4616.107;  -18.226
337.561; 4114.399; 4199.910;  -13.311
338.157; 5380.594; 5375.854;  -19.006
338.754; 4603.836; 4619.875;  -19.418
339.350; 4091.442; 4118.209;  -29.433
339.946; 4373.082; 4391.344;  -16.622
340.543; 4925.719; 4961.918;  -16.744
341.139; 4135.602; 4154.743;  -21.841
341.735; 4527.419; 4668.368;  -25.012
342.332; 3955.295; 4021.362;  -19.156
342.928; 4648.774; 4737.046;  -20.443
343.524; 4498.390; 4572.464;  -14.397
344.120; 4351.281; 4397.049;  -20.654
344.716; 4123.792; 4221.877;   -5.730
345.313; 4715.966; 4712.446;  -10.929
345.909; 3531.914; 3655.193;  -19.843
346.505; 4350.228; 4426.506;  -19.645
347.101; 4890.656; 5000.581;   -9.618
347.697; 4651.728; 4692.275;  -10.305
348.293; 3528.413; 3620.353;  -23.189
348.889; 4379.759; 4417.444;  -18.418
349.485; 3942.648; 3980.762;  -10.476
350.081; 4548.081; 4612.747;  -17.320
350.676; 4026.448; 4079.775;  -21.088
351.272; 4810.153; 4856.050;  -12.821
351.868; 4512.292; 4536.760;  -13.165
352.464; 4201.506; 4249.741;  -12.464
353.059; 3700.042; 3782.819;  -22.547
353.655; 4620.576; 4661.791;   -9.379
354.251; 4440.560; 4499.201;   -8.266
354.846; 4364.091; 4412.991;  -17.705
355.442; 4404.014; 4481.572;   -9.317
356.038; 4397.550; 4525.406;  -11.049
356.633; 4230.960; 4281.432;  -10.006
357.229; 4229.055; 4303.316;  -13.120
357.824; 4130.126; 4140.241;  -15.647
358.420; 3931.985; 4018.266;  -19.204
359.015; 3993.474; 4067.584;  -12.263
359.610; 4553.300; 4606.188;  -16.421
360.206; 3437.407; 3551.018;  -20.074
360.801; 3688.564; 3838.341;  -13.277
361.396; 4243.782; 4259.344;   -5.822
361.992; 3872.776; 3982.240;  -11.247
362.587; 3924.095; 3985.521;  -21.502
363.182; 4035.889; 4146.565;   -7.461
363.777; 4397.678; 4434.884;   -8.719
364.372; 4366.272; 4450.940;  -14.590
364.967; 4012.488; 4072.359;  -15.145
365.563; 4876.320; 4938.675;   -7.192
366.158; 4010.298; 4048.153;   -5.662
366.753; 3762.520; 3835.066;   -8.378
367.348; 4452.356; 4576.362;  -14.990
367.942; 4102.528; 4205.275;   -6.005
368.537; 4488.480; 4557.541;  -11.504
369.132; 4150.032; 4253.185;  -10.576
369.727; 3699.452; 3805.293;  -12.573
370.322; 3414.410; 3446.272;  -11.560
370.917; 4258.647; 4289.775;  -10.388
371.511; 5292.129; 5351.712;   -9.161
372.106; 4739.788; 4822.359;  -10.245
372.701; 3439.333; 3432.243;  -10.158
373.296; 5234.565; 5310.169;   -4.719
373.890; 3873.345; 3894.521;  -11.802
374.485; 4199.033; 4274.071;  -13.500
375.079; 4495.342; 4625.038;   -6.276
375.674; 4990.979; 5053.103;   -0.447
376.268; 4119.372; 4183.562;   -6.916
376.863; 3471.703; 3615.571;  -14.483
377.457; 3994.853; 4058.109;   -6.903
378.052; 4686.933; 4868.634;   -9.844
378.646; 4569.353; 4700.512;  -12.601
379.240; 4408.576; 4535.690;  -14.715
379.835; 3873.804; 3941.328;  -12.331
380.429; 3360.168; 3420.872;   -9.074
381.023; 4834.100; 4920.868;   -1.729
381.617; 4171.268; 4245.103;  -13.714
382.212; 4198.970; 4297.125;   -7.060
382.806; 4708.553; 4785.109;   -2.303
383.400; 4158.500; 4277.259;   -0.815
383.994; 4128.023; 4258.437;   -4.429
384.588; 4340.387; 4396.703;   -6.261
385.182; 4534.780; 4632.528;    0.008
385.776; 4461.002; 4437.672;   -3.247
386.370; 4252.445; 4346.740;   -1.030
386.964; 4266.097; 4357.947;   -1.346
387.558; 3685.944; 3764.463;   -2.020
388.152; 4269.665; 4357.790;   -5.345
388.745; 5198.971; 5306.734;   -2.774
389.339; 4629.285; 4780.656;    3.510
389.933; 4286.397; 4349.325;    5.280
390.527; 5517.393; 5602.647;    2.610
391.120; 3724.010; 3857.112;   -7.914
391.714; 4439.987; 4509.531;   -1.903
392.308; 4988.411; 5092.478;    6.023
392.901; 4048.000; 4174.247;   -4.103
393.495; 3770.292; 3904.268;    3.284
394.089; 4956.151; 5029.075;    8.655
394.682; 4480.881; 4644.196;    2.312
395.275; 4621.458; 4735.237;   -7.402
395.869; 4311.772; 4388.000;   -1.072
396.462; 3918.767; 4044.653;    6.454
397.056; 4969.768; 5062.422;    8.494
397.649; 4752.715; 4871.228;    1.599
398.242; 4604.100; 4745.809;    3.153
398.836; 4972.675; 5108.413;   11.395
399.429; 4007.062; 4053.697;   14.695
400.022; 4301.636; 4396.715;    3.627
400.615; 5271.924; 5410.425;    8.383
401.208; 4398.465; 4546.560;   13.295
401.802; 4512.587; 4629.921;    6.211
402.395; 4462.436; 4625.715;    7.227
402.988; 4504.247; 4596.787;    2.700
403.581; 4096.929; 4213.322;   11.225
404.174; 4358.644; 4471.635;   18.922
404.767; 4045.427; 4175.896;   14.169
405.360; 4029.763; 4173.365;    8.999
405.953; 4923.584; 5057.438;   13.138
406.545; 4724.854; 4833.878;   13.937
407.138; 3965.891; 4114.612;   10.869
407.731; 3958.133; 4069.622;   12.768
408.324; 4225.729; 4273.654;   22.921
408.917; 4420.530; 4523.528;   15.308
409.509; 4852.913; 5007.134;   12.239
410.102; 4208.488; 4357.968;   13.741
410.695; 4311.365; 4401.719;   20.249
411.287; 3872.229; 3967.872;   21.793
411.880; 3766.816; 3921.375;   22.965
412.472; 3941.670; 4132.297;   15.082
413.065; 4130.238; 4308.910;   23.423
413.657; 3728.927; 3820.216;   21.077
414.250; 4189.304; 4250.866;   12.349
414.842; 4384.217; 4509.203;   20.423
415.434; 3716.258; 3809.557;   19.906
416.027; 4170.360; 4325.970;   26.574
416.619; 4657.024; 4790.135;   15.705
417.211; 3850.188; 3975.460;   17.791
417.804; 4016.693; 4173.345;   30.244
418.396; 3947.351; 4008.785;   24.177
418.988; 4265.746; 4365.438;   24.904
419.580; 3668.405; 3810.303;   20.692
420.172; 3486.949; 3614.520;   22.275
420.764; 4318.189; 4434.264;   26.773
421.356; 4147.214; 4188.661;   25.731
421.948; 4369.823; 4444.088;   24.876
422.540; 4362.167; 4483.511;   30.042
423.132; 3863.421; 3983.983;   32.728
423.724; 3595.688; 3637.839;   21.317
424.316; 4006.990; 4112.873;   29.359
424.908; 3813.246; 3997.367;   28.798
425.500; 4186.819; 4264.327;   30.512
426.092; 4159.079; 4340.961;   26.741
426.683; 4500.142; 4602.689;   27.029
427.275; 4129.317; 4322.062;   32.611
427.867; 4272.410; 4357.680;   33.796
428.458; 4713.840; 4719.802;   34.453
429.050; 4409.552; 4472.920;   34.255
429.642; 4794.147; 4904.574;   39.082
430.233; 3555.359; 3700.852;   41.138
430.825; 4728.676; 4863.868;   31.581
431.416; 4499.339; 4599.205;   35.755
432.008; 4145.835; 4258.065;   40.566
432.599; 4153.608; 4266.196;   46.322
433.190; 4082.838; 4185.377;   46.897
433.782; 3594.205; 3748.174;   41.069
434.373; 5680.520; 5734.475;   48.778
434.964; 3795.746; 3935.906;   50.078
435.556; 4038.790; 4172.583;   52.381
436.147; 4865.325; 4922.821;   38.251
436.738; 4463.455; 4581.724;   47.237
437.329; 4547.810; 4636.000;   61.304
437.920; 4164.278; 4312.915;   48.611
438.511; 3523.094; 3755.493;   44.910
439.103; 3915.331; 4047.706;   62.404
439.694; 4285.103; 4411.228;   63.075
440.285; 4715.764; 4875.909;   61.033
440.876; 5450.000; 5532.987;   57.249
441.466; 3562.749; 3600.550;   61.306
442.057; 4134.267; 4178.541;   65.773
442.648; 4734.434; 4815.787;   65.676
443.239; 3872.439; 4012.525;   55.963
443.830; 4437.555; 4556.653;   69.631
444.421; 4061.616; 4164.494;   69.943
445.011; 4307.941; 4444.168;   72.791
445.602; 4685.719; 4821.428;   68.848
446.193; 2915.094; 3018.191;   80.044
446.783; 3873.231; 3949.635;   82.599
447.374; 4262.404; 4376.666;   77.419
447.964; 4481.018; 4640.990;   72.605
448.555; 5120.891; 5200.660;   82.041
449.145; 4088.237; 4128.810;   76.230
449.736; 5046.128; 5093.613;   75.545
450.326; 4423.741; 4477.328;   67.945
450.917; 4144.900; 4196.076;   77.598
451.507; 3627.067; 3757.701;   68.027
452.097; 4634.965; 4683.275;   67.771
452.688; 4506.931; 4642.245;   62.884
453.278; 3289.694; 3406.741;   65.512
453.868; 4940.235; 4984.095;   71.796
454.458; 3945.574; 4058.473;   60.956
455.048; 4349.858; 4482.895;   62.356
455.639; 3363.525; 3443.851;   58.782
456.229; 4299.303; 4431.926;   65.209
456.819; 4557.046; 4636.764;   61.466
457.409; 4749.667; 4802.470;   59.967
457.999; 4454.928; 4534.702;   58.093
458.589; 4061.259; 4049.433;   59.536
459.179; 4352.709; 4389.261;   55.994
459.769; 3696.544; 3801.729;   43.624
460.358; 4819.571; 4861.320;   46.978
460.948; 4096.351; 4203.052;   49.821
461.538; 3873.897; 3886.752;   54.678
462.128; 3928.603; 4015.926;   49.309
462.717; 4164.533; 4282.368;   52.774
463.307; 4162.452; 4202.590;   48.101
463.897; 3840.484; 3841.817;   45.606
464.486; 5095.324; 5152.632;   45.010
465.076; 4361.555; 4421.511;   45.519
465.666; 3731.348; 3791.290;   50.058
466.255; 4710.056; 4804.949;   44.463
466.845; 3835.697; 3955.533;   41.206
467.434; 4263.278; 4347.861;   44.847
468.023; 3742.397; 3783.693;   46.760
468.613; 4181.809; 4233.433;   39.736
469.202; 3681.294; 3741.830;   46.461
469.791; 4250.911; 4303.615;   47.944
470.381; 4239.627; 4319.803;   47.529
470.970; 4050.931; 4070.103;   43.773
471.559; 4257.100; 4293.165;   41.646
472.148; 3767.233; 3868.137;   37.914
472.738; 4357.256; 4408.269;   48.071
473.327; 3499.790; 3583.690;   47.871
473.916; 4192.069; 4264.824;   37.716
474.505; 4266.299; 4256.887;   40.256
475.094; 4652.057; 4695.866;   43.269
475.683; 4528.956; 4565.050;   36.499
476.272; 4083.022; 4097.065;   44.542
476.861; 3897.243; 3948.931;   42.297
477.449; 3989.885; 3969.882;   46.878
478.038; 3740.296; 3777.025;   35.156
478.627; 3907.660; 3876.568;   42.514
479.216; 4216.914; 4207.407;   43.937
479.805; 4280.716; 4278.832;   51.393
480.393; 5829.426; 5857.525;   53.239
480.982; 4942.065; 4896.465;   38.955
481.571; 4776.313; 4790.142;   45.436
482.159; 3671.492; 3691.654;   51.007
482.748; 4487.902; 4515.519;   49.695
483.336; 4658.164; 4598.579;   48.280
483.925; 3979.758; 4063.463;   47.166
484.513; 3944.686; 3935.260;   55.404
485.102; 4253.932; 4325.250;   54.238
485.690; 5585.073; 5619.982;   55.748
486.278; 5377.000; 5389.023;   55.934
486.867; 4154.974; 4127.811;   57.106
487.455; 4732.819; 4738.304;   56.979
488.043; 3659.732; 3691.629;   57.564
488.631; 5367.909; 5398.611;   57.432
489.220; 4681.561; 4672.864;   63.646
489.808; 3497.841; 3503.826;   65.449
490.396; 4645.557; 4640.186;   61.977
490.984; 3941.187; 3947.307;   68.834
491.572; 4616.265; 4567.773;   70.775
492.160; 4381.183; 4344.629;   67.564
492.748; 4036.763; 4080.360;   66.808
493.336; 4717.469; 4726.854;   79.747
493.924; 4037.750; 3995.183;   88.688
494.512; 4642.624; 4636.201;   84.120
495.100; 4515.959; 4472.669;   86.250
495.687; 4806.037; 4818.077;  103.074
496.275; 3881.001; 3908.229;  108.717
496.863; 4036.678; 3996.719;  107.035
497.451; 3989.819; 3961.695;  117.993
498.038; 4195.250; 4159.964;  120.116
498.626; 4053.490; 4050.548;  143.059
499.214; 4349.200; 4312.023;  153.434
499.801; 4230.395; 4222.907;  175.121
500.389; 3460.067; 3491.808;  185.617
500.976; 4427.881; 4402.742;  215.789
501.564; 4270.832; 4254.191;  240.321
502.151; 3045.329; 3080.938;  267.007
502.738; 3987.142; 4004.814;  317.961
503.326; 4106.763; 4175.680;  361.216
503.913; 4282.956; 4291.748;  401.433
504.500; 4414.101; 4366.851;  446.492
505.088; 3739.444; 3745.079;  512.063
505.675; 4073.003; 4029.045;  586.387
506.262; 4062.152; 4034.898;  671.021
506.849; 4155.413; 4133.520;  759.062
507.436; 4713.273; 4714.751;  849.788
508.023; 4142.771; 4087.889;  944.288
508.610; 4610.173; 4591.154; 1020.690
509.197; 4446.424; 4434.650; 1089.052
509.784; 4174.560; 4136.048; 1133.776
510.371; 3477.706; 3400.299; 1165.501
510.958; 4269.205; 4246.151; 1251.735
511.545; 4925.697; 4904.551; 1350.248
512.132; 4175.220; 4133.452; 1525.945
512.719; 3717.706; 3719.748; 1834.933
513.305; 3825.844; 3804.688; 1965.349
513.892; 4848.880; 4793.766; 1963.265
514.479; 4259.761; 4278.864; 2046.446
515.066; 4681.789; 4641.123; 2252.803
515.652; 4268.932; 4271.570; 2567.247
516.239; 4521.290; 4548.779; 2636.919
516.825; 3550.022; 3550.545; 2482.304
517.412; 5265.415; 5236.336; 2427.031
517.998; 4088.591; 4096.216; 2540.463
518.585; 4017.179; 3979.938; 2609.007
519.171; 4276.800; 4276.183; 2842.088
519.758; 3632.554; 3618.701; 3090.703
520.344; 4624.410; 4530.048; 3176.076
520.930; 3718.493; 3706.701; 3295.037
521.516; 4452.803; 4433.264; 3500.959
522.103; 4904.436; 4889.261; 3736.704
522.689; 4028.263; 3977.751; 3971.022
523.275; 4743.898; 4692.598; 4213.778
523.861; 4098.576; 4071.236; 4190.361
524.447; 4717.360; 4706.427; 4070.602
525.033; 4775.948; 4744.988; 4088.892
525.619; 3834.733; 3784.238; 4416.851
526.205; 3611.268; 3574.866; 4836.835
526.791; 4051.278; 3997.270; 4885.903
527.377; 3905.252; 3870.507; 4544.907
527.963; 4288.031; 4270.813; 4321.995
528.549; 4374.179; 4413.157; 4473.979
529.135; 3821.381; 3839.364; 4788.663
529.721; 4229.415; 4265.176; 4888.577
530.306; 5724.879; 5692.157; 4775.779
530.892; 4021.248; 4010.379; 4793.906
531.478; 3930.613; 3944.129; 4956.948
532.063; 3740.176; 3717.857; 5136.936
532.649; 5183.005; 5212.601; 5336.867
533.235; 3781.695; 3771.126; 5748.092
533.820; 4811.271; 4818.498; 6456.875
534.406; 4113.468; 4093.316; 6590.167
534.991; 3792.876; 3733.466; 6179.622
535.576; 4133.638; 4062.135; 6098.691
536.162; 5776.610; 5735.876; 6441.234
536.747; 3596.859; 3554.291; 6816.224
537.333; 3820.482; 3828.641; 6889.752
537.918; 4173.547; 4117.000; 7154.280
538.503; 3914.874; 3871.982; 7150.848
539.088; 4366.547; 4380.782; 7253.308
539.673; 4013.684; 3968.285; 7625.180
540.259; 3880.082; 3912.410; 8226.793
540.844; 3415.748; 3344.988; 8745.092
541.429; 5117.103; 5059.347; 8762.553
542.014; 3547.077; 3532.353; 8871.497
542.599; 4358.663; 4319.360; 8886.008
543.184; 3669.619; 3630.535; 9079.139
543.769; 3896.813; 3913.981; 9076.182
544.354; 4026.165; 4012.844; 8354.081
544.938; 4335.581; 4321.204; 8236.809
545.523; 5089.682; 5027.020; 8222.179
546.108; 4177.186; 4054.550; 8114.082
546.693; 4140.195; 4108.587; 8535.912
547.278; 4189.733; 4139.457; 9238.322
547.862; 4162.987; 4117.526; 9034.405
548.447; 4685.216; 4645.891; 7795.011
549.031; 4031.929; 4018.619; 7485.099
549.616; 4324.483; 4261.066; 7626.308
550.201; 3928.778; 3844.341; 7627.909
550.785; 4548.479; 4549.997; 7859.125
551.370; 3651.107; 3665.475; 7990.654
551.954; 4654.073; 4625.444; 8196.468
552.538; 4583.754; 4446.382; 7959.495
553.123; 3919.587; 3906.988; 7964.826
553.707; 4083.127; 4103.584; 8515.957
554.291; 4901.682; 4790.860; 8724.024
554.876; 4653.090; 4614.459; 8524.211
555.460; 3954.349; 3811.887; 8704.456
556.044; 3934.655; 3837.671; 9141.473
556.628; 4247.138; 4167.206; 9250.197
557.212; 4833.717; 4763.270; 9444.237
557.796; 4155.564; 4094.247; 9379.783
558.380; 4465.471; 4369.859; 9353.658
558.964; 4360.699; 4287.047; 9210.310
559.548; 3723.942; 3581.494; 8475.153
560.132; 4119.206; 3969.659; 7954.084
560.716; 3828.551; 3639.371; 7489.529
561.300; 3789.721; 3564.788; 7211.952
561.884; 4670.058; 4539.303; 7141.313
562.467; 4618.857; 4470.924; 7155.386
563.051; 4388.874; 4146.721; 7323.158
563.635; 4346.210; 4171.568; 7709.114
564.219; 4422.428; 4133.181; 7678.855
564.802; 4772.905; 4376.062; 7376.187
565.386; 4568.674; 4231.112; 7054.372
565.969; 5273.459; 4842.510; 6589.196
566.553; 5804.206; 5321.269; 6279.371
567.136; 5311.412; 4831.225; 5967.930
567.720; 4809.256; 4192.718; 5660.703
568.303; 5012.954; 4339.843; 5648.615
568.887; 4944.843; 4284.771; 5618.443
569.470; 5145.654; 4318.074; 5411.875
570.053; 5484.820; 4578.652; 5149.274
570.637; 4891.622; 3843.628; 5122.798
571.220; 5784.564; 4546.856; 4957.369
571.803; 6616.834; 5279.805; 4933.018
572.386; 5390.839; 4051.093; 4840.973
572.969; 5512.674; 4061.503; 4592.886
573.552; 5794.718; 4155.778; 4348.387
574.135; 5546.722; 3762.308; 4002.290
574.718; 5703.752; 3874.809; 3654.773
575.301; 5823.339; 3892.616; 3502.288
575.884; 5942.927; 3910.424; 3349.803
576.467; 7228.456; 4728.718; 3191.403
577.050; 7160.274; 4393.952; 3062.418
577.633; 8404.547; 5242.462; 3214.200
578.216; 7523.030; 4147.896; 3284.889
578.799; 7727.069; 4101.055; 3189.777
579.381; 9356.670; 5402.434; 3064.502
579.964; 8236.127; 3852.584; 2888.357
580.547; 9105.744; 4300.831; 2905.760
581.129;10258.030; 4986.127; 2966.849
581.712;10000.044; 4396.280; 2887.292
582.294; 9970.090; 4247.921; 2771.631
582.877;11402.609; 5456.581; 2711.602
583.459;10411.450; 4171.833; 2577.049
584.042;10444.094; 4103.670; 2454.707
584.624;10392.918; 3804.849; 2305.893
585.206;10593.260; 3320.018; 2189.546
585.789;12354.063; 3974.330; 2112.577
586.371;13608.739; 4489.773; 2153.065
586.953;14324.236; 4581.680; 2197.806
587.536;15199.430; 4976.896; 2105.489
588.118;14568.275; 4125.898; 1963.911
588.700;15805.679; 4946.311; 1843.179
589.282;16231.313; 4478.893; 1813.834
589.864;16472.971; 4248.493; 1777.620
590.446;16309.683; 3476.439; 1733.780
591.028;18144.746; 4296.936; 1676.008
591.610;18605.391; 3482.980; 1631.649
592.192;19958.510; 4292.812; 1632.362
592.774;19300.438; 3808.945; 1569.507
593.356;19615.064; 4004.826; 1524.539
593.937;19679.186; 3923.071; 1569.720
594.519;20843.467; 4728.411; 1569.049
595.101;20386.494; 3603.511; 1545.452
595.683;22036.525; 4024.460; 1607.568
596.264;21738.211; 4157.249; 1615.506
596.846;21330.598; 4067.189; 1667.622
597.427;21961.906; 3835.020; 1670.469
598.009;23028.949; 3882.467; 1640.312
598.591;24685.836; 4617.474; 1541.022
599.172;25119.727; 4121.058; 1598.665
599.753;25106.883; 3645.451; 1619.068
600.335;26719.994; 4919.741; 1548.612
600.916;26131.096; 4172.339; 1607.510
601.498;27267.480; 4437.576; 1745.181
602.079;27799.703; 4193.329; 1801.011
602.660;27496.756; 4176.238; 1834.640
603.241;26114.828; 3399.530; 1787.351
603.823;27597.996; 4002.764; 1684.266
604.404;27603.430; 3710.807; 1654.241
604.985;26933.215; 3984.229; 1758.741
605.566;28318.053; 4719.880; 1697.679
606.147;28788.922; 4109.829; 1526.728
606.728;29236.035; 3695.372; 1484.086
607.309;30806.035; 3965.716; 1421.070
607.890;31012.578; 4032.323; 1369.867
608.471;30040.883; 3903.279; 1277.826
609.051;30047.631; 4298.694; 1180.416
609.632;29091.547; 3833.272; 1075.816
610.213;30403.043; 4153.741; 1053.313
610.794;31154.225; 4082.082;  979.442
611.374;31423.662; 4398.585;  917.414
611.955;30993.443; 3642.363;  819.987
612.536;31898.830; 4413.417;  752.627
613.116;31430.818; 3992.919;  690.799
613.697;30282.348; 3962.100;  674.974
614.277;29215.623; 3816.888;  663.846
614.858;29132.693; 3959.351;  665.898
615.438;29322.258; 4237.457;  660.712
616.019;30264.072; 4979.497;  632.732
616.599;29490.930; 3310.866;  551.759
617.179;30074.064; 3699.276;  512.871
617.760;32403.316; 5615.482;  473.655
618.340;31007.746; 4156.284;  440.004
618.920;32126.004; 5142.653;  429.731
619.500;31142.051; 4011.975;  441.361
620.080;31642.971; 3896.450;  425.202
620.660;31358.732; 3779.800;  408.164
621.241;31472.254; 4069.837;  387.161
621.821;32345.615; 4245.116;  378.017
622.401;32323.984; 4777.775;  379.188
622.980;29963.037; 3650.087;  350.019
623.560;30325.520; 4047.025;  336.446
624.140;29626.924; 4304.531;  336.473
624.720;28906.359; 4378.953;  334.974
625.300;27560.668; 3862.978;  325.717
625.880;27277.275; 4127.372;  308.519
626.459;28964.227; 4221.969;  307.117
627.039;29947.758; 3552.747;  290.890
627.619;33495.336; 5398.881;  286.635
628.198;34820.391; 4859.606;  282.535
628.778;34602.160; 4482.953;  285.474
629.357;31968.529; 3721.441;  284.103
629.937;30920.646; 4032.906;  292.178
630.516;31417.988; 5024.134;  290.749
631.096;30760.256; 3866.481;  285.489
631.675;31003.531; 4991.765;  287.022
632.254;29426.596; 3930.136;  286.038
632.834;30900.975; 4184.821;  276.451
633.413;32488.301; 4980.584;  279.447
633.992;31396.832; 4716.374;  264.508
634.571;30631.607; 4505.208;  271.010
635.151;30365.273; 3803.568;  277.338
635.730;31698.654; 4195.275;  289.305
636.309;32817.684; 4437.972;  285.306
636.888;32471.488; 4598.537;  254.051
637.467;30289.393; 3532.883;  230.324
638.046;31668.016; 5056.565;  253.349
638.625;31134.361; 4880.496;  246.866
639.204;30088.363; 4391.589;  240.825
639.782;30043.320; 4275.155;  261.970
640.361;31342.893; 4976.176;  277.780
640.940;30121.990; 3986.832;  270.101
641.519;29845.289; 4433.488;  248.622
642.097;28861.236; 4559.144;  239.843
642.676;28810.734; 4231.799;  244.264
643.255;29619.830; 4115.455;  234.985
643.833;30209.078; 4528.111;  244.406
644.412;29906.025; 4029.767;  244.927
644.990;30493.824; 4288.422;  249.948
645.569;32007.971; 4470.078;  249.569
646.147;32773.020; 4671.734;  243.290
646.726;31883.266; 4378.390;  249.511
647.304;32033.363; 4081.045;  228.032
647.882;31919.361; 3465.701;  214.552
648.461;30956.910; 4320.357;  214.973
649.039;30105.707; 4589.013;  223.394
649.617;31672.154; 4568.668;  261.415
650.195;31558.053; 4371.324;  298.736
650.773;31388.799; 4013.980;  309.557
651.352;30422.348; 3424.635;  297.978
651.930;29783.846; 3345.291;  289.399
652.508;30965.193; 4580.947;  285.620
653.086;29634.789; 4471.603;  272.241
653.663;28963.787; 3913.259;  265.062
654.241;29358.535; 3653.914;  286.083
654.819;29093.133; 3740.570;  286.404
655.397;28601.031; 3838.226;  291.825
655.975;28430.928; 4056.881;  299.145
656.553;28963.225; 5045.537;  288.866
657.130;26698.973; 3750.193;  304.087
657.708;26745.271; 4448.849;  302.908
658.286;27165.768; 4239.504;  294.629
658.863;27856.467; 4303.160;  293.350
659.441;28883.813; 4352.816;  318.671
660.018;30090.160; 4105.472;  333.692
660.596;31050.209; 3372.127;  335.013
661.173;31734.906; 3977.783;  371.534
661.750;30557.904; 3825.439;  365.155
662.328;30911.352; 4520.095;  349.976
662.905;28673.699; 4031.750;  332.997
663.482;27746.646; 4153.406;  321.717
664.060;28451.045; 3866.062;  314.438
664.637;31066.941; 4557.718;  306.259
665.214;30986.039; 4270.374;  314.580
665.791;31909.486; 4046.029;  334.501
666.368;33122.484; 4028.685;  329.222
666.945;33405.383; 4527.341;  342.143
667.522;32280.980; 3790.996;  370.964
668.099;33087.176; 4106.652;  396.885
668.676;33450.625; 4212.308;  391.706
669.253;33873.121; 5037.964;  369.627
669.830;33113.172; 4820.620;  360.348
670.407;31275.168; 4094.275;  344.769
670.984;31088.465; 4109.931;  322.890
671.560;31801.213; 4560.586;  316.910
672.137;31153.861; 4023.242;  322.531
672.714;32377.309; 4470.898;  318.552
673.290;32148.955; 4363.554;  324.473
673.867;32161.203; 3879.210;  340.594
674.443;31365.951; 3729.865;  319.515
675.020;31222.549; 4351.521;  286.336
675.596;31244.096; 4097.177;  247.557
676.173;32331.643; 3594.833;  227.778
676.749;32476.092; 3166.488;  224.399
677.326;33244.738; 3494.144;  230.520
677.902;33150.086; 3828.800;  241.841
678.478;31514.934; 3597.456;  239.762
679.054;33889.133; 6086.111;  248.583
679.631;32627.930; 4403.767;  237.503
680.207;33999.078; 5235.423;  245.924
680.783;32079.475; 3330.079;  224.845
681.359;33954.922; 4114.734;  209.666
681.935;35522.820; 4252.390;  191.687
682.511;35263.367; 4203.046;  210.008
683.087;34745.816; 4362.702;  213.329
683.663;33841.414; 4008.357;  216.850
684.239;33471.012; 3634.013;  229.471
684.815;35258.457; 4588.669;  248.792
685.390;36324.805; 5264.325;  231.813
685.966;34668.102; 4205.980;  221.234
686.542;33381.699; 3664.636;  214.255
687.118;33348.598; 4321.292;  212.276
687.693;33935.145; 4425.947;  233.096
688.269;34081.941; 4003.603;  246.917
688.844;34781.340; 4418.259;  236.938
689.420;33591.590; 4131.915;  242.059
689.995;33779.484; 5041.570;  245.480
690.571;33078.484; 4952.226;  244.701
691.146;31173.080; 4018.882;  251.922
691.722;30535.828; 4329.538;  284.743
692.297;30190.275; 3970.194;  320.664
692.872;29404.873; 3830.849;  313.885
693.448;29649.371; 3698.505;  290.106
694.023;31764.520; 4209.161;  304.327
694.598;32358.666; 4198.816;  319.648
695.173;31997.914; 3954.472;  323.169
695.748;32069.111; 3453.128;  376.389
696.323;32777.410; 4236.784;  397.610
696.898;32275.756; 4719.439;  430.231
697.473;30182.455; 3440.095;  454.952
698.048;30585.701; 4089.751;  478.973
698.623;29683.299; 3561.407;  477.094
699.198;31409.146; 4175.063;  496.915
699.773;32220.494; 3843.718;  490.236
700.348;32596.842; 3742.374;  519.957
700.922;33733.141; 4277.030;  575.678
701.497;33570.539; 4234.686;  621.399
702.072;34076.137; 4597.341;  664.420
702.646;34315.031; 4588.997;  690.541
703.221;33642.031; 4318.653;  748.862
703.795;33076.977; 3663.308;  774.282
704.370;31514.926; 3039.964;  799.803
704.944;30843.473; 3971.620;  875.824
705.519;31016.971; 4291.276;  902.945
706.093;31201.018; 3779.931;  889.266
706.668;31908.816; 4389.587;  903.487
707.242;32307.863; 4572.243;  881.708
707.816;32073.811; 4035.899;  892.329
708.390;32519.359; 4073.554;  970.250
708.965;32301.406; 4295.210;  984.671
709.539;32826.402; 4033.866; 1026.092
710.113;33397.500; 4135.521; 1067.913
710.687;33010.551; 4533.177; 1166.434
711.261;31322.697; 3765.833; 1190.854
711.835;30515.645; 3734.489; 1197.275
712.409;29460.541; 3419.145; 1308.096
712.983;29528.889; 3403.800; 1461.617
713.557;29676.336; 3466.456; 1611.838
714.131;30475.984; 3981.112; 1554.359
714.704;30684.732; 3760.768; 1520.780
715.278;31492.730; 4125.423; 1575.101
715.852;32820.828; 4521.079; 1689.822
716.425;32296.875; 5096.735; 1829.143
716.999;29240.723; 3431.391; 2008.664
717.573;30872.869; 4361.046; 2000.485
718.146;31975.418; 4987.702; 1914.506
718.720;31193.916; 4233.358; 1818.026
719.293;31866.963; 4355.014; 1734.147
719.867;32720.510; 3831.669; 1716.968
720.440;33988.809; 4798.325; 1918.589
721.013;32316.355; 3845.981; 1975.410
721.587;32671.854; 3472.636; 2073.331
722.160;34841.699; 4573.292; 2357.852
722.733;34288.449; 4164.948; 2657.073
723.306;33071.047; 4096.604; 2703.894
723.880;33134.395; 4244.260; 2549.415
724.453;33988.039; 4814.915; 2414.336
725.026;33601.789; 3909.571; 2298.557
725.599;34518.688; 4235.227; 2168.778
726.172;34150.082; 4374.882; 2106.099
726.745;33792.430; 4278.538; 2253.320
727.318;34466.230; 4563.194; 2404.740
727.891;34110.176; 4276.850; 2680.161
728.463;33506.223; 4229.505; 2838.882
729.036;33407.621; 3757.161; 2755.103
729.609;33260.570; 3724.817; 2731.824
730.182;34810.418; 4470.473; 2855.645
730.754;35125.613; 3111.128; 2946.866
731.327;36507.762; 4353.784; 2840.187
731.900;35060.059; 3433.440; 2647.608
732.472;35555.258; 4109.096; 2473.929
733.045;34040.355; 3983.751; 2445.750
733.617;32113.652; 3381.407; 2511.771
734.190;31855.100; 4327.063; 2581.592
734.762;31260.848; 4124.719; 2710.813
735.334;31522.145; 4136.375; 3005.733
735.907;31746.943; 4077.030; 3154.954
736.479;33196.742; 4675.686; 3171.675
737.051;33706.039; 4344.342; 3217.496
737.623;34459.484; 4452.998; 3246.217
738.195;34522.832; 3758.653; 2985.238
738.768;34143.879; 3243.309; 2727.559
739.340;34128.977; 3915.965; 2666.880
739.912;34318.777; 4524.621; 2769.601
740.484;34825.125; 4286.276; 2731.422
741.056;34196.621; 4036.932; 2963.043
741.628;33947.520; 3719.588; 3361.364
742.199;35562.316; 4753.243; 3641.185
742.771;35151.414; 3585.899; 3932.005
743.343;36024.711; 3760.555; 4319.926
743.915;36737.008; 4289.210; 4706.647
744.487;36453.855; 4446.866; 4874.968
745.058;35975.754; 4369.522; 4616.589
745.630;35883.402; 4455.178; 4253.410
746.201;34751.301; 3864.834; 4056.131
746.773;35520.047; 4326.489; 3772.952
747.344;35485.496; 4043.145; 3642.473
747.916;35632.594; 4192.801; 3752.294
748.487;35257.340; 4515.457; 4106.215
749.059;34994.387; 3592.112; 4457.835
749.630;35106.484; 3772.768; 4366.457
750.201;34564.531; 4062.424; 4600.078
750.773;34260.281; 3751.080; 4658.499
751.344;34744.727; 4126.735; 4609.319
751.915;34148.074; 4046.391; 4526.440
752.486;33124.223; 3753.047; 4536.061
753.057;32184.121; 4161.703; 4383.282
753.628;31165.418; 3771.358; 4296.503
754.199;30617.816; 3937.014; 4383.224
754.770;30330.463; 4304.670; 4653.545
755.341;31002.461; 4586.326; 4831.666
755.912;30270.758; 3993.981; 4831.387
756.483;30992.156; 4446.637; 4735.808
757.054;30906.203; 3869.293; 4685.029
757.625;31456.002; 3628.948; 4994.250
758.195;31814.549; 3497.604; 5051.471
758.766;33015.297; 4129.260; 5317.792
759.337;32285.645; 3423.916; 5646.512
759.907;32017.742; 3456.572; 5404.133
760.478;33072.938; 3820.227; 5090.954
761.048;33960.137; 4370.883; 4871.175
761.619;33262.535; 4274.539; 4589.396
762.189;32245.631; 4029.195; 4171.317
762.760;32222.430; 4531.850; 3872.538
763.330;32137.326; 4403.506; 3832.259
763.900;31898.275; 4172.162; 4150.180
764.471;30673.172; 3653.817; 4529.801
765.041;30896.971; 4621.473; 4715.922
765.611;30237.418; 4302.129; 4681.442
766.181;29277.266; 4007.785; 4717.063
766.751;29656.213; 4068.440; 4710.285
767.321;29848.260; 3645.096; 4450.305
767.891;31034.059; 4140.752; 4274.126
768.461;31592.756; 3966.408; 4215.047
769.031;31126.203; 4119.063; 4173.068
769.601;31520.350; 4663.719; 4174.689
770.171;29400.748; 3379.375; 4229.310
770.741;29367.996; 3923.031; 4352.031
771.311;28415.393; 4359.687; 4336.652
771.880;27559.441; 3706.342; 4300.873
772.450;27530.488; 3729.998; 4387.194
773.020;27178.936; 3441.654; 4220.415
773.589;27771.383; 3721.309; 4075.835
774.159;27857.980; 3805.965; 4105.756
774.729;27741.578; 3782.621; 4114.978
775.298;27425.877; 3778.277; 3693.298
775.867;27281.174; 3785.932; 3343.119
776.437;27995.621; 4079.588; 3062.040
777.006;27863.719; 3434.244; 2927.161
777.576;28408.018; 4317.899; 3046.482
778.145;27913.514; 4267.555; 3230.203
778.714;28046.762; 4007.211; 3253.324
779.283;28894.010; 4285.867; 3129.745
779.853;28292.807; 4049.523; 2983.566
780.422;27288.955; 4019.178; 2929.887
780.991;27221.203; 4325.834; 2863.908
781.560;28404.801; 4683.490; 2948.029
782.129;27998.646; 4208.146; 3074.149
782.698;27821.346; 4681.801; 2893.970
783.267;26436.742; 3794.457; 2721.391
783.836;27019.090; 4200.113; 2659.712
784.404;26748.639; 3570.769; 2622.233
784.973;25639.836; 3114.424; 2600.754
785.542;26063.184; 4043.080; 2528.475
786.111;26518.580; 4693.736; 2404.396
786.679;25619.629; 4274.392; 2365.717
787.248;24427.775; 3443.047; 2498.438
787.817;25228.523; 3802.703; 2645.659
788.385;26024.920; 4547.359; 2709.280
788.954;24544.369; 3478.015; 2620.500
789.522;25420.967; 4392.670; 2625.422
790.090;24409.363; 3528.326; 2743.843
790.659;25885.711; 3823.982; 2635.163
791.227;26291.260; 3888.637; 2495.484
791.795;26553.207; 4177.293; 2413.705
792.364;26898.805; 3594.949; 2345.326
792.932;28305.402; 4216.605; 2350.447
793.500;28177.600; 3858.260; 2429.768
794.068;27130.396; 3427.916; 2513.589
794.636;26988.994; 3702.572; 2664.310
795.204;26365.242; 3295.228; 2721.431
795.772;26100.939; 3651.884; 2802.052
796.340;26184.137; 3756.539; 2847.173
796.908;25532.785; 3289.195; 2997.194
797.476;25217.182; 3509.851; 3151.615
798.044;24844.381; 3250.507; 3110.735
798.612;25948.828; 3958.162; 2931.656
799.180;26147.375; 4086.818; 2785.777
799.747;25961.672; 4008.474; 2899.098
800.315;25452.420; 3435.129; 2955.519
800.883;24680.668; 3162.785; 2948.940
801.450;24820.564; 3940.441; 2965.361
802.018;24957.912; 4183.097; 3070.582
802.585;25122.111; 3985.752; 3156.103
803.153;25212.408; 3678.408; 3199.524
803.720;25641.355; 3694.064; 3168.845
804.287;25208.904; 3920.720; 3248.366
804.855;25183.551; 4450.375; 3406.187
805.422;24062.699; 3871.031; 3430.907
805.989;23541.047; 3599.687; 3453.528
806.556;24181.543; 3635.343; 3612.649
807.124;26723.742; 4369.999; 3736.570
807.691;26742.889; 3546.654; 3770.491
808.258;26681.686; 4007.310; 3705.012
808.825;26749.885; 4518.966; 3828.733
809.392;27391.982; 4664.622; 3986.754
809.959;27292.379; 4210.277; 4410.075
810.526;27696.377; 4871.933; 4774.996
811.093;26742.875; 4452.589; 4754.217
811.659;25643.021; 3920.244; 4661.238
812.226;25065.119; 3952.900; 4672.559
812.793;24407.217; 4135.556; 4822.979
813.360;23956.615; 3920.212; 5189.800
813.926;24203.113; 4139.867; 5310.622
814.493;23875.609; 3501.523; 5414.542
815.060;23966.258; 3204.179; 5548.963
815.626;25146.955; 3510.835; 5452.284
816.193;26226.553; 4119.490; 5339.305
816.759;25651.100; 3683.146; 5544.426
817.325;24335.748; 3265.802; 5706.547
817.892;25286.545; 4356.458; 5623.468
818.458;25218.643; 4214.113; 5586.689
819.024;25343.490; 4563.769; 5647.910
819.591;23982.639; 3965.425; 5762.031
820.157;22612.436; 3501.081; 6284.452
820.723;23385.734; 4153.736; 6906.973
821.289;25611.131; 6094.392; 7086.894
821.855;23710.078; 4335.048; 7054.915
822.421;22641.775; 3823.704; 7112.035
822.987;21592.574; 3493.359; 7256.156
823.553;21578.771; 3910.015; 7538.077
824.119;21893.818; 4447.671; 7594.298
824.685;21739.316; 4588.327; 7613.619
825.251;21191.014; 4401.982; 7644.140
825.816;21029.162; 4882.638; 7720.261
826.382;20019.859; 4369.294; 8014.282
826.948;20373.857; 4403.950; 8281.503
827.513;20063.504; 3895.605; 8289.624
828.079;19759.602; 3576.261; 8587.045
828.645;20245.600; 4168.917; 8821.865
829.210;19817.998; 3531.573; 9054.486
829.776;20513.045; 4259.229; 9054.607
830.341;20702.643; 4372.884; 9415.628
830.906;20269.391; 4558.540; 9932.449
831.472;18273.988; 3631.196;10150.271
832.037;17958.635; 4391.851; 9420.391
832.602;16840.533; 3781.507; 8664.912
833.167;17484.480; 4080.163; 8491.933
833.733;18064.828; 4406.818; 8872.854
834.298;17216.875; 3607.474; 9370.575
834.863;17462.873; 4193.130; 9610.695
835.428;17356.271; 4207.786; 9655.616
835.993;17214.219; 4255.441; 9437.838
836.558;17230.566; 4280.097; 9441.459
837.123;18382.164; 5278.753; 9600.979
837.688;16896.160; 4213.409; 9798.301
838.253;16073.858; 4126.064; 9902.921
838.817;15554.856; 3883.720;10339.742
839.382;16568.854; 4656.376;10548.363
839.947;15922.151; 4115.032;10252.484
840.511;16189.249; 4840.688;10040.005
841.076;14134.446; 3118.343;10099.926
841.641;14803.895; 4214.999;10347.347
842.205;14280.742; 4203.655;10817.368
842.770;15097.140; 4926.311;11435.289
843.334;14255.787; 3974.966;12072.409
843.898;14218.935; 3791.622;12635.431
844.463;15074.882; 4626.278;12537.252
845.027;13742.529; 3865.933;12759.673
845.591;14071.478; 4439.589;12821.993
846.156;13433.775; 3789.245;12520.914
846.720;14032.022; 4383.901;12390.436
847.284;13596.870; 4146.557;12956.456
847.848;13268.518; 4274.212;13240.177
848.412;12494.016; 4046.868;13216.998
848.976;12734.363; 4699.523;13014.619
849.540;13004.761; 5159.179;12355.740
850.104;12547.208; 4709.835;12208.761
850.668;11014.256; 3227.491;12106.882
851.232;11109.753; 3376.147;11862.103
851.796;11799.051; 3985.802;11700.523
852.359;12314.549; 4439.458;12375.944
852.923;12323.046; 4567.114;13087.966
853.487;12079.743; 4417.770;13297.187
854.050;10405.191; 2773.425;13851.207
854.614;11512.039; 3852.081;14854.229
855.177;11775.836; 4208.737;15802.149
855.741;11717.634; 4218.393;16603.570
856.304;11776.531; 4520.048;16359.891
856.868;10520.379; 3557.704;14365.512
857.431;10546.377; 4062.360;13361.333
857.995;10125.475; 3881.016;14130.554
858.558;10195.021; 4193.671;14883.175
859.121;10484.319; 4476.327;15754.195
859.684;10190.517; 4152.983;15995.017
860.247;10036.265; 4082.639;15149.537
860.810; 9982.513; 3864.294;14640.358
861.374;11568.010; 5157.950;15551.079
861.937;10078.058; 3541.606;16519.801
862.500;10418.205; 3787.261;16796.521
863.062;10298.503; 3591.917;16538.742
863.625;10849.700; 4180.573;16716.764
864.188;10292.048; 3833.229;17055.084
864.751; 9939.096; 3832.885;17197.705
865.314;10039.693; 4093.540;17151.625
865.876;10551.091; 4534.196;17783.547
866.439;10482.038; 4379.852;19283.467
867.002;10975.786; 5062.507;20256.389
867.564;10215.983; 4600.163;20485.410
868.127; 9598.431; 4045.819;20789.730
868.689; 9818.379; 4180.475;21981.951
869.252;10085.626; 4637.130;23803.771
869.814; 9243.424; 3729.786;24974.094
870.377; 9784.621; 4236.442;24690.314
870.939;11283.919; 5865.098;23963.436
871.501; 9418.816; 4160.753;25167.156
872.063; 8233.314; 3072.409;26995.477
872.626; 8396.312; 3323.065;27443.098
873.188; 9220.959; 4151.721;26718.418
873.750; 8907.257; 3970.376;26558.840
874.312; 8547.055; 3832.032;26701.561
874.874; 9404.652; 4907.688;27970.582
875.436; 8946.949; 4414.344;29173.402
875.998; 9143.597; 4739.000;30376.623
876.560; 8815.995; 4437.655;32507.344
877.122; 7948.842; 3676.311;34833.066
877.683; 8403.840; 4339.967;36458.285
878.245; 7547.587; 3923.623;37248.207
878.807; 7786.885; 4325.278;36758.027
879.369; 6922.333; 3526.934;35223.551
879.930; 7144.830; 3585.590;33824.969
880.492; 8190.428; 4693.246;34436.492
881.053; 7135.226; 3646.901;37745.313
881.615; 7163.673; 3793.557;41184.633
882.176; 7261.920; 3968.213;42871.555
882.738; 7711.368; 4449.869;41693.074
883.299; 6486.216; 3203.524;40289.895
883.860; 6569.313; 3346.180;39231.215
884.422; 7482.111; 4350.835;38264.039
884.983; 6571.309; 3590.491;37171.859
885.544; 7020.256; 4101.147;35842.379
886.105; 6911.854; 4077.803;34810.000
886.666; 6626.451; 3842.459;34519.020
887.227; 6047.499; 3331.115;33905.641
887.788; 6845.196; 4272.770;34502.965
888.349; 6025.244; 3443.426;34241.785
888.910; 6811.542; 4410.082;33722.203
889.471; 6535.089; 4171.737;32539.625
890.032; 6366.537; 4028.393;31528.346
890.593; 6629.685; 4343.049;32655.068
891.153; 6228.232; 3991.705;33882.289
891.714; 5529.979; 3489.360;33318.711
892.275; 5494.827; 3520.016;31848.930
892.835; 6382.725; 4429.672;30339.752
893.396; 6232.472; 4337.328;30074.973
893.956; 5693.520; 3918.983;30338.393
894.517; 5825.067; 4183.639;30864.113
895.077; 5802.015; 4235.295;29766.734
895.638; 6385.613; 4893.951;26379.557
896.198; 4997.060; 3579.606;24056.277
896.758; 5810.108; 4392.262;22961.898
897.319; 5267.655; 3949.918;21772.020
897.879; 5242.203; 4009.573;20877.539
898.439; 4503.901; 3333.229;19509.461
898.999; 5434.998; 4251.885;17297.582
899.559; 5320.196; 4199.541;14712.002
900.119; 4622.293; 3592.197;12790.224
900.679; 5793.341; 4769.853;11586.744
901.239; 5292.489; 4335.508;10776.465
901.799; 4976.736; 4095.164; 9691.687
902.359; 4527.934; 3620.820; 8725.907
902.919; 4447.781; 3640.475; 8305.728
903.479; 4466.279; 3625.131; 8172.649
904.038; 4280.577; 3439.787; 7913.870
904.598; 3796.174; 3087.443; 7262.291
905.158; 4565.822; 3872.098; 6609.012
905.717; 4728.619; 3925.754; 6236.133
906.277; 4785.717; 4036.410; 5829.054
906.836; 5006.265; 4257.065; 5396.674
907.396; 4921.862; 4280.721; 4964.195
907.955; 4924.110; 4195.377; 4528.917
908.515; 4513.007; 3844.033; 4223.837
909.074; 4566.305; 3904.688; 4023.958
909.633; 4587.353; 3933.344; 4065.379
910.192; 5544.350; 4879.000; 4066.300
910.752; 4504.100; 3836.000; 3971.600
911.311; 4447.550; 3829.000; 3839.600
911.870; 4305.200; 3733.000; 3684.500
912.429; 5190.800; 4522.000; 3635.600
912.988; 5073.750; 4439.000; 3689.800
913.547; 4225.300; 3665.000; 3737.700
914.106; 4714.250; 4118.000; 3740.300
914.665; 4692.100; 4086.000; 3604.600
915.224; 5136.000; 4420.000; 3358.700
915.782; 4385.450; 3749.000; 3188.400
916.341; 5278.450; 4630.000; 3091.400
916.900; 4435.100; 3842.000; 3044.800
917.458; 4227.650; 3646.000; 2888.600
918.017; 4655.250; 4041.000; 2818.900
918.576; 4460.450; 3844.000; 2838.600
919.134; 3963.850; 3296.000; 2880.100
919.693; 4411.650; 3810.000; 2996.300
920.251; 4339.800; 3730.000; 3183.100
920.809; 4096.250; 3478.000; 3247.000
921.368; 4346.450; 3701.000; 3156.600
921.926; 4171.150; 3509.000; 2964.900
922.484; 4590.450; 4010.000; 2846.300
923.042; 4446.600; 3810.000; 2890.400
923.601; 5254.600; 4590.000; 2987.700
924.159; 4833.250; 4172.000; 3049.800
924.717; 4181.000; 3556.000; 3087.000
925.275; 4612.800; 4012.000; 3093.400
925.833; 3812.900; 3174.000; 3182.400
926.391; 4860.650; 4162.000; 3397.900
926.949; 4380.150; 3691.000; 3575.400
927.506; 4671.500; 4103.000; 3713.400
928.064; 4438.500; 3777.000; 3871.300
928.622; 4539.150; 3866.000; 4092.800
929.180; 4078.000; 3448.000; 4499.300
929.737; 3987.300; 3313.000; 4813.200
930.295; 4837.200; 4149.000; 5084.100
930.853; 4249.550; 3612.000; 5185.000
931.410; 4050.900; 3428.000; 5313.100
931.968; 4923.300; 4289.000; 5339.600
932.525; 4609.250; 4008.000; 5399.900
933.082; 3978.000; 3316.000; 5457.500
933.640; 4763.800; 4121.000; 5692.900
934.197; 4456.450; 3753.000; 5821.200
934.754; 4480.900; 3810.000; 5617.900
935.312; 4252.750; 3661.000; 5512.400
935.869; 5293.350; 4593.000; 5582.400
936.426; 4274.500; 3648.000; 5650.100
936.983; 4390.400; 3704.000; 5657.400
937.540; 4013.900; 3380.000; 5564.300
938.097; 4742.250; 4024.000; 5574.000
938.654; 4366.950; 3680.000; 5665.900
939.211; 4744.250; 4017.000; 5931.600
939.768; 4512.700; 3775.000; 6153.600
940.324; 4388.250; 3749.000; 6397.600
940.881; 4215.900; 3571.000; 6454.200
941.438; 5127.800; 4445.000; 6206.900
941.995; 4932.400; 4294.000; 6003.900
942.551; 4059.150; 3385.000; 6228.300
943.108; 4480.450; 3850.000; 6603.500
943.664; 4079.400; 3403.000; 7188.100
944.221; 5536.000; 4794.000; 7579.900
944.777; 4021.200; 3410.000; 7658.100
945.334; 4140.400; 3458.000; 7670.400
945.890; 4549.600; 3830.000; 7525.100
946.446; 4560.100; 3923.000; 7261.500
947.003; 4687.500; 4052.000; 6949.200
947.559; 5319.150; 4598.000; 6773.100
948.115; 5052.300; 4390.000; 6668.400
948.671; 4643.000; 4048.000; 6488.400
949.227; 3903.450; 3255.000; 6236.600
949.783; 3856.350; 3263.000; 6008.900
950.339; 4762.450; 4058.000; 5934.100
950.895; 5007.350; 4358.000; 5933.500
951.451; 4361.750; 3643.000; 6074.700
952.007; 4846.450; 4221.000; 6066.400
952.563; 4389.800; 3731.000; 5884.100
953.118; 4245.850; 3556.000; 5733.800
953.674; 4508.200; 3860.000; 5734.300
954.230; 4518.850; 3829.000; 6039.700
954.785; 4513.150; 3788.000; 6383.500
955.341; 4920.250; 4249.000; 6568.200
955.897; 3867.400; 3263.000; 6488.600
956.452; 4699.250; 4057.000; 6239.200
957.008; 5638.150; 5006.000; 5954.600
957.563; 5113.500; 4383.000; 5816.700
958.118; 4194.100; 3554.000; 5828.200
958.674; 4620.900; 3987.000; 5717.400
959.229; 5189.200; 4500.000; 5506.800
959.784; 3990.450; 3326.000; 5292.200
960.339; 5175.800; 4567.000; 5101.900
960.894; 4913.400; 4254.000; 5093.200
961.449; 4154.600; 3559.000; 5227.900
962.004; 6585.850; 5871.000; 5349.300
962.559; 4211.750; 3556.000; 5514.900
963.114; 3421.700; 2827.000; 5717.300
963.669; 4552.600; 3950.000; 5841.400
964.224; 4321.200; 3697.000; 5805.900
964.779; 4019.750; 3383.000; 5723.400
965.334; 5172.100; 4557.000; 5779.500
965.888; 4251.650; 3623.000; 5948.500
966.443; 4925.950; 4260.000; 6344.200
966.998; 3836.100; 3258.000; 6666.300
967.552; 4479.050; 3851.000; 6710.100
968.107; 4226.950; 3640.000; 6593.500
968.661; 4601.400; 3999.000; 6344.100
969.216; 4146.500; 3593.000; 6062.400
969.770; 4587.700; 4038.000; 5785.500
970.324; 4606.950; 4009.000; 5426.800
970.879; 4838.050; 4247.000; 5016.800
971.433; 4901.200; 4333.000; 4904.500
971.987; 4521.650; 3974.000; 4991.000
972.541; 4661.300; 4010.000; 4978.500
973.095; 5251.400; 4668.000; 4832.000
973.649; 3889.050; 3347.000; 4767.900
974.203; 4033.550; 3486.000; 4881.200
974.757; 4215.450; 3708.000; 4969.500
975.311; 4354.800; 3822.000; 4953.000
975.865; 4437.350; 3895.000; 4884.300
976.419; 4265.450; 3723.000; 4739.800
976.973; 4196.850; 3686.000; 4698.100
977.526; 4918.900; 4377.000; 4631.100
978.080; 3858.050; 3376.000; 4621.600
978.634; 4695.700; 4113.000; 4650.200
979.187; 4589.000; 4137.000; 4669.200
979.741; 5394.800; 4854.000; 4658.000
980.294; 3849.600; 3414.000; 4579.100
980.848; 3414.700; 2939.000; 4452.800
981.401; 4112.650; 3632.000; 4271.900
981.955; 4354.050; 3940.000; 4087.800
982.508; 3675.450; 3172.000; 3973.900
983.061; 4849.650; 4384.000; 3928.600
983.615; 3996.600; 3473.000; 3851.200
984.168; 3829.700; 3349.000; 3734.800
984.721; 4571.950; 4191.000; 3628.300
985.274; 4491.900; 4087.000; 3564.300
985.827; 4299.700; 3823.000; 3558.100
986.380; 3547.150; 3166.000; 3559.900
986.933; 4511.950; 4046.000; 3688.700
987.486; 4530.550; 4111.000; 3778.500
988.039; 4504.200; 4083.000; 3559.900
988.591; 4788.300; 4361.000; 3219.300
989.144; 3729.650; 3366.000; 2902.900
989.697; 3933.550; 3520.000; 2722.600
990.250; 4628.100; 4261.000; 2618.000
990.802; 3930.150; 3589.000; 2523.900
991.355; 5497.800; 5030.000; 2436.500
991.907; 4761.600; 4323.500; 2412.200
992.460; 4025.400; 3617.000; 2387.900
993.012; 4033.300; 3668.000; 2365.800
993.565; 3765.450; 3432.000; 2311.100
994.117; 5383.750; 5024.000; 2308.700
994.669; 3777.150; 3413.000; 2249.300
995.221; 4412.100; 4098.000; 2158.100
995.774; 4360.750; 4019.000; 2085.600
996.326; 4056.050; 3727.000; 2068.100
996.878; 4798.100; 4501.000; 1975.300
997.430; 3839.900; 3556.000; 1929.500
997.982; 4204.500; 3876.000; 1861.900
998.534; 4160.500; 3923.000; 1830.200
999.086; 4135.750; 3791.000; 1823.200
999.638; 3623.950; 3274.000; 1815.000
1000.190; 3964.450; 3607.000; 1796.600
1000.741; 4212.950; 3881.000; 1738.800
1001.293; 3847.500; 3563.000; 1666.200
1001.845; 3830.650; 3473.000; 1566.500
1002.396; 4274.600; 3970.000; 1471.900
1002.948; 4242.700; 3993.000; 1398.000
1003.500; 4155.250; 3836.000; 1356.500
1004.051; 5509.450; 5191.000; 1294.200
1004.603; 4709.350; 4414.000; 1190.000
1005.154; 3483.600; 3256.000; 1063.900
1005.705; 4260.300; 4018.000;  968.300
1006.257; 4188.650; 3899.000;  889.800
1006.808; 4075.750; 3803.000;  801.500
1007.359; 4670.850; 4392.000;  716.400
1007.910; 3844.100; 3589.000;  639.100
1008.461; 4469.600; 4196.000;  561.600
1009.013; 3475.300; 3309.000;  500.400
1009.564; 4893.650; 4649.000;  476.100
1010.115; 3518.750; 3257.000;  431.600
1010.665; 3606.900; 3424.000;  409.300
1011.216; 4047.050; 3845.000;  399.700
1011.767; 4243.550; 4044.000;  388.100
1012.318; 4427.850; 4250.000;  381.400
1012.869; 4074.400; 3860.000;  375.400
1013.419; 3597.250; 3427.000;  357.600
1013.970; 4071.800; 3860.000;  358.300
1014.521; 3702.150; 3485.000;  344.100
1015.071; 4088.500; 3892.000;  322.800
1015.622; 3814.700; 3631.000;  320.600
1016.172; 3584.450; 3383.000;  301.700
1016.723; 3697.250; 3489.000;  289.800
1017.273; 3656.350; 3526.000;  287.600
1017.823; 3947.450; 3811.000;  278.700
1018.374; 3716.900; 3551.000;  274.400
1018.924; 4415.450; 4161.000;  283.200
1019.474; 4383.550; 4104.000;  278.500
1020.024; 3991.150; 3824.000;  274.700
1020.574; 4463.650; 4301.000;  272.700
1021.124; 4146.650; 3987.000;  278.400
1021.674; 3368.950; 3150.000;  269.200
1022.224; 4387.050; 4195.000;  267.800
1022.774; 4079.900; 3879.000;  258.100
1023.324; 4695.800; 4534.000;  260.000
1023.874; 5569.500; 5351.000;  260.700
1024.423; 3745.650; 3520.000;  252.700
1024.973; 3666.050; 3495.000;  234.700
1025.523; 3775.300; 3573.000;  226.500
1026.072; 3691.950; 3508.000;  225.500
1026.622; 4160.750; 4023.000;  210.100
1027.172; 4420.150; 4313.000;  213.000
1027.721; 3657.600; 3489.000;  207.700
1028.270; 4142.600; 3992.000;  205.400
1028.820; 3936.350; 3787.000;  201.000
1029.369; 3765.150; 3643.000;  201.000
1029.918; 3957.100; 3746.000;  198.400
1030.468; 3427.150; 3248.000;  199.200
1031.017; 3923.000; 3709.000;  192.600
1031.566; 3743.500; 3525.000;  197.400
1032.115; 4318.050; 4097.000;  188.300
1032.664; 3685.400; 3518.000;  193.700
1033.213; 4585.000; 4389.000;  191.900
1033.762; 3932.500; 3768.000;  184.500
1034.311; 4189.500; 3988.000;  194.300
1034.860; 4301.150; 4078.000;  192.300
1035.408; 4536.050; 4398.000;  182.600
1035.957; 4493.450; 4358.000;  173.900
1036.506; 3220.750; 3109.000;  185.200
1037.055; 5361.350; 5123.000;  182.500
1037.603; 4135.000; 3956.000;  167.600
1038.152; 3218.600; 3090.000;  168.200
1038.700; 3594.200; 3438.000;  169.600
1039.249; 4232.350; 4034.000;  164.300
1039.797; 3952.250; 3767.000;  169.600
1040.345; 4397.850; 4233.000;  167.100
1040.894; 3896.600; 3780.000;  164.400
1041.442; 3944.550; 3804.000;  158.300
1041.990; 3451.700; 3284.000;  160.000
1042.538; 3298.500; 3161.000;  156.800
1043.087; 3484.050; 3312.000;  146.600
1043.635; 4232.400; 4061.000;  162.400
1044.183; 3652.300; 3571.000;  156.300
1044.731; 3560.700; 3433.000;  158.100
1045.279; 4243.000; 4006.000;  154.500
1045.827; 5742.250; 5551.000;  146.200
1046.374; 3145.700; 2964.000;  154.000
1046.922; 3664.950; 3605.000;  149.000
1047.470; 4351.450; 4204.000;  154.900
1048.018; 4109.550; 3932.000;  148.400
1048.565; 4515.600; 4297.000;  146.300
1049.113; 3431.400; 3243.000;  156.100
1049.660; 3918.150; 3728.000;  154.300
1050.208; 4240.950; 4077.000;  149.400
1050.755; 3791.150; 3551.000;  157.500
1051.303; 4340.350; 4216.000;  157.700
1051.850; 3977.850; 3803.000;  152.800
1052.397; 2890.450; 2721.000;  146.300
1052.945; 3871.550; 3744.000;  149.500
1053.492; 4699.100; 4593.000;  149.300
1054.039; 4583.950; 4427.000;  163.100
1054.586; 3464.100; 3319.000;  150.400
1055.133; 4415.700; 4270.000;  153.500
1055.680; 4052.700; 3919.000;  155.600
1056.227; 3346.200; 3220.000;  148.700
1056.774; 5077.450; 4903.000;  151.500
1057.321; 3240.200; 3117.000;  143.700
1057.868; 4085.050; 3906.000;  145.300
1058.415; 4109.800; 4007.000;  153.500
1058.961; 4263.650; 4121.000;  149.900
1059.508; 4041.000; 3853.000;  147.300
1060.055; 3652.250; 3518.000;  151.000
1060.601; 3885.250; 3742.000;  148.700
1061.148; 3944.550; 3805.000;  153.800
1061.694; 3739.200; 3586.000;  150.500
1062.241; 3749.050; 3590.000;  149.100
1062.787; 4228.450; 4050.000;  153.000
1063.334; 5140.400; 4934.000;  153.200
1063.880; 4249.200; 4100.000;  148.400
1064.426; 4498.600; 4312.000;  149.200
1064.972; 3747.700; 3646.000;  156.400
1065.518; 3554.350; 3432.000;  144.700
1066.065; 3970.600; 3868.000;  139.400
1066.611; 3783.250; 3641.000;  139.300
1067.157; 4051.700; 4017.000;  138.400
1067.703; 4256.850; 4134.000;  142.700
1068.249; 3770.900; 3589.000;  136.700
1068.794; 3961.350; 3879.000;  139.400
1069.340; 3631.300; 3464.000;  142.700
1069.886; 3747.250; 3628.000;  135.600
1070.432; 3373.150; 3246.000;  133.400
1070.977; 3816.750; 3718.000;  138.200
1071.523; 3553.750; 3385.000;  132.400
1072.068; 3638.450; 3519.000;  132.700
1072.614; 3277.200; 3125.000;  127.000
1073.160; 4420.350; 4282.000;  131.300
1073.705; 3643.450; 3494.000;  135.700
1074.250; 3536.500; 3346.000;  133.000
1074.796; 4183.100; 4041.000;  138.000
1075.341; 4236.500; 4082.000;  137.300
1075.886; 3727.950; 3560.000;  134.300
1076.431; 4185.250; 4028.000;  138.200
1076.976; 4107.500; 3970.000;  132.200
1077.521; 3679.350; 3626.000;  138.900
1078.067; 3679.000; 3526.000;  128.600
1078.612; 4257.450; 4149.000;  138.900
1079.156; 3829.550; 3659.000;  128.900
1079.701; 4452.450; 4292.000;  129.700
1080.246; 4466.050; 4366.000;  128.600
1080.791; 4024.450; 3908.000;  122.600
1081.336; 4196.350; 4072.000;  122.000
1081.880; 4166.550; 4039.000;  123.900
1082.425; 3617.000; 3467.000;  120.600
1082.970; 4615.550; 4476.000;  124.500
1083.514; 3801.900; 3647.000;  112.000
1084.059; 3723.400; 3607.000;  120.700
1084.603; 3607.650; 3485.000;  116.000
1085.147; 4164.300; 3993.000;  116.300
1085.692; 4639.800; 4527.000;  108.200
1086.236; 3190.100; 3093.000;  114.600
1086.780; 4863.850; 4729.000;  118.900
1087.325; 4195.450; 4146.000;  120.400
1087.869; 3933.250; 3788.000;  110.500
1088.413; 4515.450; 4375.000;  114.000
1088.957; 3417.700; 3298.000;  114.300
1089.501; 4994.000; 4820.000;  114.600
1090.045; 4706.250; 4580.000;  114.200
1090.589; 3624.750; 3537.000;  105.500
1091.133; 4324.700; 4119.000;  111.800
1091.676; 3738.150; 3600.000;  110.900
1092.220; 3858.000; 3661.000;  110.100
1092.764; 4559.500; 4413.000;  108.100
1093.307; 4325.200; 4230.000;  109.900
1093.851; 3553.900; 3439.000;  107.500
1094.395; 4416.250; 4305.000;   96.200
1094.938; 4077.300; 3970.000;   99.300
1095.482; 3578.150; 3534.000;   97.700
1096.025; 4574.300; 4414.000;   84.900
1096.568; 5006.700; 4867.000;   88.500
1097.112; 3191.200; 3088.000;   95.700
1097.655; 3804.700; 3686.000;   97.300
1098.198; 3812.550; 3670.000;   92.600
1098.741; 3965.850; 3878.000;   91.800
1099.285; 4221.350; 4055.000;   88.000
1099.828; 2784.750; 2659.000;   91.700
1100.371; 3921.900; 3824.000;   89.900
1100.914; 4455.950; 4302.000;   91.500
1101.457; 4386.650; 4198.000;   88.100
1101.999; 3707.800; 3617.000;   86.400
1102.542; 4092.150; 4009.000;   90.800
1103.085; 4264.500; 4097.000;   95.400
1103.628; 4980.600; 4902.000;   97.700
1104.170; 3746.450; 3646.000;   84.000
1104.713; 4163.400; 4060.000;   93.900
1105.256; 3566.950; 3444.000;   93.000
1105.798; 3208.300; 3080.000;   85.600
1106.341; 4732.150; 4574.000;   87.100
1106.883; 3350.200; 3214.000;   85.200
1107.425; 4336.050; 4231.000;   85.000
1107.968; 3996.450; 3945.000;   84.300
1108.510; 4431.200; 4279.000;   88.200
1109.052; 3987.950; 3888.000;   86.600
1109.594; 3561.300; 3518.000;   79.400
1110.136; 4200.250; 4039.000;   81.700
1110.679; 4063.750; 3940.000;   75.500
1111.221; 3911.850; 3787.000;   88.500
1111.763; 3570.300; 3459.000;   87.700
1112.304; 3514.450; 3440.000;   89.700
1112.846; 4340.000; 4247.000;   81.900
1113.388; 6237.500; 6035.000;   86.400
1113.930; 4518.900; 4407.000;   84.700
1114.472; 3939.900; 3905.000;   78.900
1115.013; 3575.850; 3441.000;   78.100
1115.555; 3831.500; 3729.000;   84.900
1116.097; 3705.800; 3669.000;   79.200
1116.638; 4488.900; 4355.000;   83.700
1117.180; 4307.150; 4188.000;   85.500
1117.721; 3735.750; 3616.000;   78.800
1118.262; 4418.550; 4212.000;   77.400
1118.804; 4134.450; 4020.000;   81.400
1119.345; 3779.450; 3609.000;   77.800
1119.886; 4596.000; 4497.000;   81.200
1120.427; 3816.300; 3747.000;   77.200
1120.969; 3900.700; 3845.000;   75.200
1121.510; 3646.950; 3557.000;   80.900
1122.051; 4728.350; 4606.000;   77.300
1122.592; 4285.800; 4214.000;   73.300
1123.133; 3525.450; 3499.000;   90.100
1123.673; 4634.450; 4514.000;   75.000
1124.214; 3979.200; 3782.000;   80.600
1124.755; 4190.750; 4090.000;   78.000
1125.296; 4070.000; 3938.000;   77.500
1125.836; 4505.750; 4385.000;   80.400
1126.377; 3906.900; 3792.000;   75.600
1126.918; 4055.750; 3944.000;   78.900
1127.458; 4058.700; 3928.000;   78.000
1127.999; 4292.000; 4150.000;   76.100
1128.539; 4543.450; 4372.000;   81.400
1129.079; 4173.650; 4003.000;   77.400
1129.620; 3621.450; 3583.000;   68.000
1130.160; 3516.650; 3425.000;   77.500
1130.700; 4166.800; 4054.000;   76.300
1131.240; 4216.200; 4087.000;   66.800
1131.781; 4062.950; 3951.000;   70.600
1132.321; 3911.950; 3893.000;   77.200
1132.861; 3637.650; 3562.000;   70.400
1133.401; 3900.650; 3742.000;   68.700
1133.941; 4110.850; 3959.000;   68.500
1134.481; 3941.200; 3801.000;   75.900
1135.020; 3984.600; 3872.000;   66.600
1135.560; 4404.600; 4330.000;   68.100
1136.100; 3247.300; 3174.000;   64.900
1136.640; 3341.300; 3259.000;   72.500
1137.179; 3464.650; 3350.000;   69.700
1137.719; 3961.150; 3813.000;   68.400
1138.258; 3840.550; 3720.000;   67.000
1138.798; 4337.350; 4176.000;   69.600
1139.337; 3131.250; 3039.000;   64.000
1139.877; 4191.300; 4088.000;   64.500
1140.416; 5768.400; 5686.000;   74.900
1140.955; 3477.250; 3385.000;   67.200
1141.494; 4434.150; 4307.000;   69.900
1142.034; 3819.200; 3743.000;   59.100
1142.573; 4248.050; 4119.000;   65.900
1143.112; 3600.450; 3522.000;   70.600
1143.651; 3508.500; 3460.000;   67.100
1144.190; 4553.250; 4441.000;   56.700
1144.729; 3977.650; 3927.000;   61.800
1145.267; 3805.500; 3655.000;   62.500
1145.806; 4183.800; 4052.000;   68.500
1146.345; 4214.050; 4113.000;   58.300
1146.884; 4122.350; 4052.000;   63.100
1147.422; 3469.250; 3387.000;   54.800
1147.961; 4675.800; 4585.000;   67.600
1148.500; 4412.200; 4261.000;   64.700
1149.038; 4195.350; 4114.000;   61.000
1149.577; 4612.450; 4457.000;   65.100
1150.115; 2934.550; 2801.000;   58.100
1150.653; 3996.900; 3880.000;   60.500
1151.192; 3631.900; 3604.000;   56.600
1151.730; 4322.150; 4194.000;   62.300
1152.268; 3863.650; 3780.000;   55.500
1152.806; 3765.500; 3716.000;   58.200
1153.344; 3791.250; 3681.000;   55.000
1153.882; 3928.600; 3899.000;   64.200
1154.421; 3049.400; 2988.000;   60.300
1154.958; 3947.500; 3887.000;   58.100
1155.496; 4252.300; 4161.000;   55.800
1156.034; 4785.600; 4640.000;   61.000
1156.572; 4405.700; 4243.000;   56.200
1157.110; 3074.200; 2949.000;   53.200
1157.647; 4470.750; 4327.000;   57.400
1158.185; 3741.500; 3664.000;   55.500
1158.723; 3348.850; 3265.000;   58.000
1159.260; 4616.550; 4469.000;   53.700
1159.798; 4357.850; 4286.000;   51.700
1160.335; 4175.550; 4055.000;   59.600

