gmr_right
Integration time [ms]: 2924.932
Averaging Nr. [scans]: 20
Smoothing Nr. [pixels]: 0
Data measured with spectrometer [name]: 7414430SP
Wave   ;Sample   ;Dark     ;Reference
[nm]   ;[counts] ;[counts] ;[counts] 

288.544; 4075.717; 4004.872;    6.613
289.143; 3329.408; 3299.256;   14.216
289.742; 4336.290; 4251.540;   11.816
290.341; 4139.887; 4111.361;   -4.936
290.940; 3778.826; 3777.373;    0.852
291.538; 4770.446; 4707.574;    1.792
292.137; 4218.282; 4170.812;    6.262
292.736; 5499.787; 5393.361;    8.164
293.335; 3883.034; 3778.989;   -6.418
293.934; 4169.532; 4117.811;   -2.904
294.532; 5899.446; 5801.267;   -5.162
295.131; 4680.467; 4640.547;  -10.283
295.730; 4507.813; 4500.288;  -16.141
296.328; 4346.002; 4365.994;  -14.740
296.927; 4296.138; 4342.634;   -8.768
297.525; 4283.565; 4336.466;  -15.255
298.124; 3502.345; 3531.862;  -22.063
298.722; 4195.798; 4214.137;  -14.796
299.321; 3864.806; 3899.753;  -10.466
299.919; 4151.092; 4130.490;  -10.979
300.518; 3796.047; 3843.040;  -12.077
301.116; 3780.752; 3792.590;  -13.509
301.715; 4018.655; 4046.269;  -11.939
302.313; 3862.431; 3893.503;  -15.424
302.911; 4141.998; 4135.330;  -19.833
303.509; 5430.678; 5368.340;   -3.567
304.108; 4247.289; 4284.731;   -9.553
304.706; 4550.296; 4613.959;   -8.582
305.304; 4647.364; 4704.674;  -12.348
305.902; 4413.953; 4461.188;  -14.411
306.500; 4110.021; 4117.403;   -7.194
307.098; 4248.531; 4232.906;   -9.322
307.696; 4531.558; 4587.237;  -19.192
308.294; 4171.807; 4212.946;   -9.736
308.892; 4343.809; 4331.528;  -15.482
309.490; 4004.207; 4051.140;  -14.107
310.088; 4593.234; 4668.568;  -15.862
310.686; 4737.861; 4711.803;  -10.781
311.284; 4445.550; 4510.912;  -14.878
311.882; 4122.708; 4139.527;   -9.948
312.480; 3983.785; 3988.955;  -15.503
313.078; 4795.553; 4791.284;  -17.262
313.675; 3922.671; 3884.403;   -3.694
314.273; 4697.245; 4709.361;  -18.246
314.871; 3251.807; 3276.640;  -15.190
315.468; 3734.748; 3754.330;  -12.633
316.066; 3982.682; 4052.890;   -5.765
316.664; 3724.924; 3794.564;  -14.317
317.261; 5470.821; 5555.902;   -8.677
317.859; 4603.651; 4652.396;  -11.804
318.456; 5005.094; 5011.571;   -3.107
319.054; 4686.047; 4716.137;   -3.062
319.651; 4476.828; 4529.130;   -6.706
320.249; 4906.328; 4977.130;   -5.206
320.846; 4240.261; 4283.206;   -4.679
321.443; 5080.623; 5160.887;   -7.920
322.041; 4984.599; 5026.121;  -14.105
322.638; 4222.414; 4282.577;   -6.263
323.235; 3901.431; 3954.503;   -7.424
323.833; 4450.951; 4451.606;  -14.765
324.430; 3561.091; 3607.409;  -10.550
325.027; 5388.325; 5410.565;   -9.951
325.624; 3700.069; 3726.628;   -3.712
326.221; 4013.451; 3951.203;   -9.368
326.818; 4911.686; 4893.956;   -5.637
327.415; 4352.578; 4333.744;   -6.699
328.012; 3918.046; 3991.363;   -5.713
328.609; 4169.604; 4204.979;   -9.983
329.206; 4571.231; 4595.310;   -7.154
329.803; 4211.741; 4225.813;   -1.682
330.400; 3960.045; 3877.572;   -2.741
330.997; 4685.968; 4713.837;   -4.339
331.594; 4562.113; 4493.480;  -10.278
332.191; 4048.165; 4046.772;   -6.967
332.787; 4847.851; 4859.509;   -0.480
333.384; 4267.453; 4236.477;  -10.333
333.981; 4672.445; 4744.055;  -19.900
334.578; 3898.498; 3922.830;  -19.816
335.174; 4031.681; 4050.195;  -15.844
335.771; 4795.917; 4859.239;  -12.670
336.367; 3996.577; 4053.226;  -21.124
336.964; 4586.259; 4616.107;  -18.226
337.561; 4125.199; 4199.910;  -13.311
338.157; 5367.024; 5375.854;  -19.006
338.754; 4612.842; 4619.875;  -19.418
339.350; 4091.628; 4118.209;  -29.433
339.946; 4375.795; 4391.344;  -16.622
340.543; 4928.077; 4961.918;  -16.744
341.139; 4121.784; 4154.743;  -21.841
341.735; 4545.971; 4668.368;  -25.012
342.332; 3975.902; 4021.362;  -19.156
342.928; 4658.024; 4737.046;  -20.443
343.524; 4483.521; 4572.464;  -14.397
344.120; 4335.533; 4397.049;  -20.654
344.716; 4110.401; 4221.877;   -5.730
345.313; 4693.264; 4712.446;  -10.929
345.909; 3530.179; 3655.193;  -19.843
346.505; 4341.398; 4426.506;  -19.645
347.101; 4895.081; 5000.581;   -9.618
347.697; 4633.682; 4692.275;  -10.305
348.293; 3527.274; 3620.353;  -23.189
348.889; 4381.555; 4417.444;  -18.418
349.485; 3919.693; 3980.762;  -10.476
350.081; 4540.145; 4612.747;  -17.320
350.676; 4020.181; 4079.775;  -21.088
351.272; 4812.534; 4856.050;  -12.821
351.868; 4541.833; 4536.760;  -13.165
352.464; 4191.275; 4249.741;  -12.464
353.059; 3727.467; 3782.819;  -22.547
353.655; 4625.130; 4661.791;   -9.379
354.251; 4460.600; 4499.201;   -8.266
354.846; 4347.650; 4412.991;  -17.705
355.442; 4405.802; 4481.572;   -9.317
356.038; 4401.839; 4525.406;  -11.049
356.633; 4251.466; 4281.432;  -10.006
357.229; 4233.357; 4303.316;  -13.120
357.824; 4142.625; 4140.241;  -15.647
358.420; 3925.103; 4018.266;  -19.204
359.015; 3997.691; 4067.584;  -12.263
359.610; 4536.311; 4606.188;  -16.421
360.206; 3430.037; 3551.018;  -20.074
360.801; 3682.585; 3838.341;  -13.277
361.396; 4258.895; 4259.344;   -5.822
361.992; 3883.325; 3982.240;  -11.247
362.587; 3894.297; 3985.521;  -21.502
363.182; 4025.083; 4146.565;   -7.461
363.777; 4402.021; 4434.884;   -8.719
364.372; 4367.745; 4450.940;  -14.590
364.967; 4028.743; 4072.359;  -15.145
365.563; 4870.672; 4938.675;   -7.192
366.158; 4002.604; 4048.153;   -5.662
366.753; 3773.883; 3835.066;   -8.378
367.348; 4444.903; 4576.362;  -14.990
367.942; 4088.882; 4205.275;   -6.005
368.537; 4483.205; 4557.541;  -11.504
369.132; 4172.351; 4253.185;  -10.576
369.727; 3705.240; 3805.293;  -12.573
370.322; 3404.172; 3446.272;  -11.560
370.917; 4256.181; 4289.775;  -10.388
371.511; 5295.538; 5351.712;   -9.161
372.106; 4724.293; 4822.359;  -10.245
372.701; 3417.284; 3432.243;  -10.158
373.296; 5230.402; 5310.169;   -4.719
373.890; 3856.847; 3894.521;  -11.802
374.485; 4174.501; 4274.071;  -13.500
375.079; 4486.795; 4625.038;   -6.276
375.674; 4961.349; 5053.103;   -0.447
376.268; 4113.522; 4183.562;   -6.916
376.863; 3462.251; 3615.571;  -14.483
377.457; 3994.068; 4058.109;   -6.903
378.052; 4669.445; 4868.634;   -9.844
378.646; 4575.268; 4700.512;  -12.601
379.240; 4412.720; 4535.690;  -14.715
379.835; 3872.846; 3941.328;  -12.331
380.429; 3353.382; 3420.872;   -9.074
381.023; 4815.271; 4920.868;   -1.729
381.617; 4175.848; 4245.103;  -13.714
382.212; 4189.667; 4297.125;   -7.060
382.806; 4688.218; 4785.109;   -2.303
383.400; 4161.983; 4277.259;   -0.815
383.994; 4108.535; 4258.437;   -4.429
384.588; 4344.059; 4396.703;   -6.261
385.182; 4531.966; 4632.528;    0.008
385.776; 4435.612; 4437.672;   -3.247
386.370; 4241.925; 4346.740;   -1.030
386.964; 4256.664; 4357.947;   -1.346
387.558; 3678.363; 3764.463;   -2.020
388.152; 4277.030; 4357.790;   -5.345
388.745; 5186.355; 5306.734;   -2.774
389.339; 4638.313; 4780.656;    3.510
389.933; 4270.287; 4349.325;    5.280
390.527; 5507.384; 5602.647;    2.610
391.120; 3716.327; 3857.112;   -7.914
391.714; 4433.326; 4509.531;   -1.903
392.308; 4970.511; 5092.478;    6.023
392.901; 4042.594; 4174.247;   -4.103
393.495; 3752.112; 3904.268;    3.284
394.089; 4958.011; 5029.075;    8.655
394.682; 4468.189; 4644.196;    2.312
395.275; 4608.215; 4735.237;   -7.402
395.869; 4297.779; 4388.000;   -1.072
396.462; 3931.854; 4044.653;    6.454
397.056; 4973.787; 5062.422;    8.494
397.649; 4730.286; 4871.228;    1.599
398.242; 4598.338; 4745.809;    3.153
398.836; 4935.808; 5108.413;   11.395
399.429; 3974.290; 4053.697;   14.695
400.022; 4281.797; 4396.715;    3.627
400.615; 5277.096; 5410.425;    8.383
401.208; 4395.563; 4546.560;   13.295
401.802; 4513.587; 4629.921;    6.211
402.395; 4427.447; 4625.715;    7.227
402.988; 4491.620; 4596.787;    2.700
403.581; 4079.577; 4213.322;   11.225
404.174; 4360.546; 4471.635;   18.922
404.767; 4041.559; 4175.896;   14.169
405.360; 4009.562; 4173.365;    8.999
405.953; 4907.485; 5057.438;   13.138
406.545; 4690.401; 4833.878;   13.937
407.138; 3949.928; 4114.612;   10.869
407.731; 3923.157; 4069.622;   12.768
408.324; 4209.404; 4273.654;   22.921
408.917; 4419.216; 4523.528;   15.308
409.509; 4821.946; 5007.134;   12.239
410.102; 4192.782; 4357.968;   13.741
410.695; 4312.008; 4401.719;   20.249
411.287; 3856.982; 3967.872;   21.793
411.880; 3748.492; 3921.375;   22.965
412.472; 3942.449; 4132.297;   15.082
413.065; 4120.348; 4308.910;   23.423
413.657; 3715.298; 3820.216;   21.077
414.250; 4169.463; 4250.866;   12.349
414.842; 4373.959; 4509.203;   20.423
415.434; 3694.854; 3809.557;   19.906
416.027; 4166.733; 4325.970;   26.574
416.619; 4626.146; 4790.135;   15.705
417.211; 3840.754; 3975.460;   17.791
417.804; 4027.146; 4173.345;   30.244
418.396; 3936.561; 4008.785;   24.177
418.988; 4234.486; 4365.438;   24.904
419.580; 3656.419; 3810.303;   20.692
420.172; 3477.488; 3614.520;   22.275
420.764; 4299.494; 4434.264;   26.773
421.356; 4133.724; 4188.661;   25.731
421.948; 4366.001; 4444.088;   24.876
422.540; 4365.159; 4483.511;   30.042
423.132; 3831.322; 3983.983;   32.728
423.724; 3572.376; 3637.839;   21.317
424.316; 4009.333; 4112.873;   29.359
424.908; 3795.264; 3997.367;   28.798
425.500; 4160.538; 4264.327;   30.512
426.092; 4140.405; 4340.961;   26.741
426.683; 4474.412; 4602.689;   27.029
427.275; 4110.415; 4322.062;   32.611
427.867; 4261.583; 4357.680;   33.796
428.458; 4717.061; 4719.802;   34.453
429.050; 4393.378; 4472.920;   34.255
429.642; 4773.253; 4904.574;   39.082
430.233; 3524.216; 3700.852;   41.138
430.825; 4716.714; 4863.868;   31.581
431.416; 4507.810; 4599.205;   35.755
432.008; 4122.675; 4258.065;   40.566
432.599; 4159.082; 4266.196;   46.322
433.190; 4057.293; 4185.377;   46.897
433.782; 3586.763; 3748.174;   41.069
434.373; 5665.344; 5734.475;   48.778
434.964; 3788.931; 3935.906;   50.078
435.556; 4011.383; 4172.583;   52.381
436.147; 4845.919; 4922.821;   38.251
436.738; 4455.669; 4581.724;   47.237
437.329; 4552.322; 4636.000;   61.304
437.920; 4154.159; 4312.915;   48.611
438.511; 3503.752; 3755.493;   44.910
439.103; 3893.661; 4047.706;   62.404
439.694; 4305.529; 4411.228;   63.075
440.285; 4694.991; 4875.909;   61.033
440.876; 5443.983; 5532.987;   57.249
441.466; 3553.177; 3600.550;   61.306
442.057; 4119.348; 4178.541;   65.773
442.648; 4719.013; 4815.787;   65.676
443.239; 3872.499; 4012.525;   55.963
443.830; 4428.197; 4556.653;   69.631
444.421; 4052.003; 4164.494;   69.943
445.011; 4305.195; 4444.168;   72.791
445.602; 4669.749; 4821.428;   68.848
446.193; 2916.313; 3018.191;   80.044
446.783; 3853.589; 3949.635;   82.599
447.374; 4246.735; 4376.666;   77.419
447.964; 4457.343; 4640.990;   72.605
448.555; 5120.267; 5200.660;   82.041
449.145; 4055.881; 4128.810;   76.230
449.736; 5038.271; 5093.613;   75.545
450.326; 4427.639; 4477.328;   67.945
450.917; 4130.355; 4196.076;   77.598
451.507; 3632.143; 3757.701;   68.027
452.097; 4623.375; 4683.275;   67.771
452.688; 4538.428; 4642.245;   62.884
453.278; 3278.618; 3406.741;   65.512
453.868; 4930.013; 4984.095;   71.796
454.458; 3932.485; 4058.473;   60.956
455.048; 4336.543; 4482.895;   62.356
455.639; 3345.258; 3443.851;   58.782
456.229; 4293.840; 4431.926;   65.209
456.819; 4556.037; 4636.764;   61.466
457.409; 4739.826; 4802.470;   59.967
457.999; 4445.743; 4534.702;   58.093
458.589; 4061.860; 4049.433;   59.536
459.179; 4329.827; 4389.261;   55.994
459.769; 3693.280; 3801.729;   43.624
460.358; 4823.111; 4861.320;   46.978
460.948; 4090.678; 4203.052;   49.821
461.538; 3874.098; 3886.752;   54.678
462.128; 3937.041; 4015.926;   49.309
462.717; 4156.307; 4282.368;   52.774
463.307; 4155.195; 4202.590;   48.101
463.897; 3825.352; 3841.817;   45.606
464.486; 5105.229; 5152.632;   45.010
465.076; 4343.353; 4421.511;   45.519
465.666; 3717.415; 3791.290;   50.058
466.255; 4695.159; 4804.949;   44.463
466.845; 3821.220; 3955.533;   41.206
467.434; 4243.987; 4347.861;   44.847
468.023; 3728.865; 3783.693;   46.760
468.613; 4176.110; 4233.433;   39.736
469.202; 3681.891; 3741.830;   46.461
469.791; 4238.973; 4303.615;   47.944
470.381; 4236.504; 4319.803;   47.529
470.970; 4050.084; 4070.103;   43.773
471.559; 4240.927; 4293.165;   41.646
472.148; 3765.641; 3868.137;   37.914
472.738; 4363.748; 4408.269;   48.071
473.327; 3493.905; 3583.690;   47.871
473.916; 4186.421; 4264.824;   37.716
474.505; 4275.466; 4256.887;   40.256
475.094; 4661.898; 4695.866;   43.269
475.683; 4516.469; 4565.050;   36.499
476.272; 4076.468; 4097.065;   44.542
476.861; 3881.602; 3948.931;   42.297
477.449; 3980.997; 3969.882;   46.878
478.038; 3739.242; 3777.025;   35.156
478.627; 3890.327; 3876.568;   42.514
479.216; 4210.574; 4207.407;   43.937
479.805; 4255.042; 4278.832;   51.393
480.393; 5811.892; 5857.525;   53.239
480.982; 4948.508; 4896.465;   38.955
481.571; 4775.401; 4790.142;   45.436
482.159; 3656.490; 3691.654;   51.007
482.748; 4480.023; 4515.519;   49.695
483.336; 4666.307; 4598.579;   48.280
483.925; 3963.949; 4063.463;   47.166
484.513; 3908.520; 3935.260;   55.404
485.102; 4269.340; 4325.250;   54.238
485.690; 5563.857; 5619.982;   55.748
486.278; 5370.083; 5389.023;   55.934
486.867; 4142.724; 4127.811;   57.106
487.455; 4723.905; 4738.304;   56.979
488.043; 3663.362; 3691.629;   57.564
488.631; 5348.905; 5398.611;   57.432
489.220; 4676.589; 4672.864;   63.646
489.808; 3511.923; 3503.826;   65.449
490.396; 4618.187; 4640.186;   61.977
490.984; 3921.715; 3947.307;   68.834
491.572; 4624.208; 4567.773;   70.775
492.160; 4367.662; 4344.629;   67.564
492.748; 4021.679; 4080.360;   66.808
493.336; 4703.910; 4726.854;   79.747
493.924; 4020.278; 3995.183;   88.688
494.512; 4620.485; 4636.201;   84.120
495.100; 4516.638; 4472.669;   86.250
495.687; 4788.148; 4818.077;  103.074
496.275; 3874.823; 3908.229;  108.717
496.863; 4029.643; 3996.719;  107.035
497.451; 3986.916; 3961.695;  117.993
498.038; 4205.399; 4159.964;  120.116
498.626; 4031.061; 4050.548;  143.059
499.214; 4335.133; 4312.023;  153.434
499.801; 4215.125; 4222.907;  175.121
500.389; 3463.515; 3491.808;  185.617
500.976; 4406.762; 4402.742;  215.789
501.564; 4239.156; 4254.191;  240.321
502.151; 3060.721; 3080.938;  267.007
502.738; 3993.034; 4004.814;  317.961
503.326; 4083.868; 4175.680;  361.216
503.913; 4275.431; 4291.748;  401.433
504.500; 4391.850; 4366.851;  446.492
505.088; 3728.008; 3745.079;  512.063
505.675; 4085.501; 4029.045;  586.387
506.262; 4048.495; 4034.898;  671.021
506.849; 4164.474; 4133.520;  759.062
507.436; 4716.691; 4714.751;  849.788
508.023; 4120.317; 4087.889;  944.288
508.610; 4599.140; 4591.154; 1020.690
509.197; 4438.830; 4434.650; 1089.052
509.784; 4182.861; 4136.048; 1133.776
510.371; 3456.236; 3400.299; 1165.501
510.958; 4239.430; 4246.151; 1251.735
511.545; 4917.120; 4904.551; 1350.248
512.132; 4166.661; 4133.452; 1525.945
512.719; 3715.981; 3719.748; 1834.933
513.305; 3829.747; 3804.688; 1965.349
513.892; 4856.238; 4793.766; 1963.265
514.479; 4268.089; 4278.864; 2046.446
515.066; 4675.443; 4641.123; 2252.803
515.652; 4278.379; 4271.570; 2567.247
516.239; 4520.377; 4548.779; 2636.919
516.825; 3532.851; 3550.545; 2482.304
517.412; 5263.502; 5236.336; 2427.031
517.998; 4059.234; 4096.216; 2540.463
518.585; 4015.621; 3979.938; 2609.007
519.171; 4275.028; 4276.183; 2842.088
519.758; 3617.136; 3618.701; 3090.703
520.344; 4615.511; 4530.048; 3176.076
520.930; 3718.885; 3706.701; 3295.037
521.516; 4437.580; 4433.264; 3500.959
522.103; 4886.020; 4889.261; 3736.704
522.689; 4037.240; 3977.751; 3971.022
523.275; 4754.766; 4692.598; 4213.778
523.861; 4119.842; 4071.236; 4190.361
524.447; 4724.683; 4706.427; 4070.602
525.033; 4774.776; 4744.988; 4088.892
525.619; 3850.301; 3784.238; 4416.851
526.205; 3608.849; 3574.866; 4836.835
526.791; 4041.399; 3997.270; 4885.903
527.377; 3903.385; 3870.507; 4544.907
527.963; 4296.333; 4270.813; 4321.995
528.549; 4368.700; 4413.157; 4473.979
529.135; 3816.439; 3839.364; 4788.663
529.721; 4227.908; 4265.176; 4888.577
530.306; 5717.799; 5692.157; 4775.779
530.892; 4020.238; 4010.379; 4793.906
531.478; 3924.013; 3944.129; 4956.948
532.063; 3749.520; 3717.857; 5136.936
532.649; 5193.125; 5212.601; 5336.867
533.235; 3757.303; 3771.126; 5748.092
533.820; 4819.756; 4818.498; 6456.875
534.406; 4107.443; 4093.316; 6590.167
534.991; 3797.958; 3733.466; 6179.622
535.576; 4132.482; 4062.135; 6098.691
536.162; 5767.928; 5735.876; 6441.234
536.747; 3582.966; 3554.291; 6816.224
537.333; 3817.301; 3828.641; 6889.752
537.918; 4153.665; 4117.000; 7154.280
538.503; 3888.557; 3871.982; 7150.848
539.088; 4368.587; 4380.782; 7253.308
539.673; 4006.997; 3968.285; 7625.180
540.259; 3885.784; 3912.410; 8226.793
540.844; 3402.776; 3344.988; 8745.092
541.429; 5086.090; 5059.347; 8762.553
542.014; 3549.859; 3532.353; 8871.497
542.599; 4351.729; 4319.360; 8886.008
543.184; 3676.021; 3630.535; 9079.139
543.769; 3894.757; 3913.981; 9076.182
544.354; 4023.831; 4012.844; 8354.081
544.938; 4340.044; 4321.204; 8236.809
545.523; 5071.623; 5027.020; 8222.179
546.108; 4163.270; 4054.550; 8114.082
546.693; 4133.336; 4108.587; 8535.912
547.278; 4171.879; 4139.457; 9238.322
547.862; 4162.493; 4117.526; 9034.405
548.447; 4691.176; 4645.891; 7795.011
549.031; 4036.933; 4018.619; 7485.099
549.616; 4348.119; 4261.066; 7626.308
550.201; 3915.671; 3844.341; 7627.909
550.785; 4540.805; 4549.997; 7859.125
551.370; 3668.487; 3665.475; 7990.654
551.954; 4681.190; 4625.444; 8196.468
552.538; 4584.097; 4446.382; 7959.495
553.123; 3927.026; 3906.988; 7964.826
553.707; 4079.526; 4103.584; 8515.957
554.291; 4903.329; 4790.860; 8724.024
554.876; 4652.039; 4614.459; 8524.211
555.460; 3956.616; 3811.887; 8704.456
556.044; 3930.397; 3837.671; 9141.473
556.628; 4238.054; 4167.206; 9250.197
557.212; 4847.098; 4763.270; 9444.237
557.796; 4162.780; 4094.247; 9379.783
558.380; 4479.878; 4369.859; 9353.658
558.964; 4374.560; 4287.047; 9210.310
559.548; 3722.095; 3581.494; 8475.153
560.132; 4147.809; 3969.659; 7954.084
560.716; 3859.517; 3639.371; 7489.529
561.300; 3807.906; 3564.788; 7211.952
561.884; 4704.354; 4539.303; 7141.313
562.467; 4666.182; 4470.924; 7155.386
563.051; 4440.702; 4146.721; 7323.158
563.635; 4420.228; 4171.568; 7709.114
564.219; 4487.426; 4133.181; 7678.855
564.802; 4837.958; 4376.062; 7376.187
565.386; 4653.113; 4231.112; 7054.372
565.969; 5359.594; 4842.510; 6589.196
566.553; 5864.797; 5321.269; 6279.371
567.136; 5396.512; 4831.225; 5967.930
567.720; 4921.642; 4192.718; 5660.703
568.303; 5131.830; 4339.843; 5648.615
568.887; 5115.707; 4284.771; 5618.443
569.470; 5334.497; 4318.074; 5411.875
570.053; 5666.589; 4578.652; 5149.274
570.637; 5139.312; 3843.628; 5122.798
571.220; 6017.419; 4546.856; 4957.369
571.803; 6833.713; 5279.805; 4933.018
572.386; 5613.005; 4051.093; 4840.973
572.969; 5764.874; 4061.503; 4592.886
573.552; 6058.826; 4155.778; 4348.387
574.135; 5823.823; 3762.308; 4002.290
574.718; 6036.623; 3874.809; 3654.773
575.301; 6178.452; 3892.616; 3502.288
575.884; 6320.281; 3910.424; 3349.803
576.467; 7668.242; 4728.718; 3191.403
577.050; 7681.369; 4393.952; 3062.418
577.633; 8974.398; 5242.462; 3214.200
578.216; 8097.244; 4147.896; 3284.889
578.799; 8380.488; 4101.055; 3189.777
579.381;10068.211; 5402.434; 3064.502
579.964; 9018.426; 3852.584; 2888.357
580.547;10025.940; 4300.831; 2905.760
581.129;11242.110; 4986.127; 2966.849
581.712;10998.136; 4396.280; 2887.292
582.294;11041.771; 4247.921; 2771.631
582.877;12424.616; 5456.581; 2711.602
583.459;11424.600; 4171.833; 2577.049
584.042;11479.946; 4103.670; 2454.707
584.624;11492.049; 3804.849; 2305.893
585.206;11826.972; 3320.018; 2189.546
585.789;13692.940; 3974.330; 2112.577
586.371;14978.966; 4489.773; 2153.065
586.953;15758.525; 4581.680; 2197.806
587.536;16461.443; 4976.896; 2105.489
588.118;15665.653; 4125.898; 1963.911
588.700;16783.031; 4946.311; 1843.179
589.282;17150.035; 4478.893; 1813.834
589.864;17587.895; 4248.493; 1777.620
590.446;17817.529; 3476.439; 1733.780
591.028;19798.920; 4296.936; 1676.008
591.610;20525.805; 3482.980; 1631.649
592.192;22055.883; 4292.812; 1632.362
592.774;21513.248; 3808.945; 1569.507
593.356;22267.480; 4004.826; 1524.539
593.937;22243.137; 3923.071; 1569.720
594.519;23132.492; 4728.411; 1569.049
595.101;22673.303; 3603.511; 1545.452
595.683;24375.297; 4024.460; 1607.568
596.264;24366.189; 4157.249; 1615.506
596.846;24257.004; 4067.189; 1667.622
597.427;24967.432; 3835.020; 1670.469
598.009;25789.217; 3882.467; 1640.312
598.591;27203.785; 4617.474; 1541.022
599.172;27426.998; 4121.058; 1598.665
599.753;27572.367; 3645.451; 1619.068
600.335;29745.318; 4919.741; 1548.612
600.916;29383.119; 4172.339; 1607.510
601.498;30652.406; 4437.576; 1745.181
602.079;31520.990; 4193.329; 1801.011
602.660;30992.809; 4176.238; 1834.640
603.241;29517.109; 3399.530; 1787.351
603.823;30817.586; 4002.764; 1684.266
604.404;30417.473; 3710.807; 1654.241
604.985;29622.779; 3984.229; 1758.741
605.566;30907.795; 4719.880; 1697.679
606.147;31470.289; 4109.829; 1526.728
606.728;32403.574; 3695.372; 1484.086
607.309;34304.289; 3965.716; 1421.070
607.890;34064.172; 4032.323; 1369.867
608.471;32714.484; 3903.279; 1277.826
609.051;33161.723; 4298.694; 1180.416
609.632;32142.215; 3833.272; 1075.816
610.213;33284.270; 4153.741; 1053.313
610.794;33641.973; 4082.082;  979.442
611.374;33780.383; 4398.585;  917.414
611.955;33875.145; 3642.363;  819.987
612.536;34919.359; 4413.417;  752.627
613.116;34383.520; 3992.919;  690.799
613.697;33441.434; 3962.100;  674.974
614.277;32070.473; 3816.888;  663.846
614.858;31763.508; 3959.351;  665.898
615.438;31442.086; 4237.457;  660.712
616.019;32090.963; 4979.497;  632.732
616.599;31297.805; 3310.866;  551.759
617.179;32130.525; 3699.276;  512.871
617.760;34763.266; 5615.482;  473.655
618.340;33903.703; 4156.284;  440.004
618.920;35325.945; 5142.653;  429.731
619.500;33947.844; 4011.975;  441.361
620.080;33695.469; 3896.450;  425.202
620.660;33311.102; 3779.800;  408.164
621.241;33348.270; 4069.837;  387.161
621.821;34625.129; 4245.116;  378.017
622.401;34861.375; 4777.775;  379.188
622.980;32703.293; 3650.087;  350.019
623.560;32820.699; 4047.025;  336.446
624.140;31434.719; 4304.531;  336.473
624.720;30246.777; 4378.953;  334.974
625.300;28859.754; 3862.978;  325.717
625.880;28815.525; 4127.372;  308.519
626.459;30595.475; 4221.969;  307.117
627.039;31670.037; 3552.747;  290.890
627.619;35330.555; 5398.881;  286.635
628.198;36759.500; 4859.606;  282.535
628.778;36496.227; 4482.953;  285.474
629.357;34084.238; 3721.441;  284.103
629.937;33094.480; 4032.906;  292.178
630.516;33519.438; 5024.134;  290.749
631.096;33144.863; 3866.481;  285.489
631.675;33388.094; 4991.765;  287.022
632.254;31429.947; 3930.136;  286.038
632.834;32866.270; 4184.821;  276.451
633.413;34287.082; 4980.584;  279.447
633.992;33333.484; 4716.374;  264.508
634.571;32321.121; 4505.208;  271.010
635.151;32309.984; 3803.568;  277.338
635.730;33990.473; 4195.275;  289.305
636.309;34786.336; 4437.972;  285.306
636.888;33956.938; 4598.537;  254.051
637.467;31785.113; 3532.883;  230.324
638.046;33547.023; 5056.565;  253.349
638.625;32762.611; 4880.496;  246.866
639.204;31307.951; 4391.589;  240.825
639.782;30736.654; 4275.155;  261.970
640.361;31876.736; 4976.176;  277.780
640.940;31481.090; 3986.832;  270.101
641.519;31646.293; 4433.488;  248.622
642.097;30953.447; 4559.144;  239.843
642.676;31165.301; 4231.799;  244.264
643.255;31808.406; 4115.455;  234.985
643.833;32138.410; 4528.111;  244.406
644.412;31994.863; 4029.767;  244.927
644.990;32879.918; 4288.422;  249.948
645.569;34660.270; 4470.078;  249.569
646.147;35538.625; 4671.734;  243.290
646.726;34577.379; 4378.390;  249.511
647.304;34227.332; 4081.045;  228.032
647.882;33306.188; 3465.701;  214.552
648.461;32012.490; 4320.357;  214.973
649.039;31585.145; 4589.013;  223.394
649.617;32903.848; 4568.668;  261.415
650.195;32963.203; 4371.324;  298.736
650.773;32679.857; 4013.980;  309.557
651.352;31457.260; 3424.635;  297.978
651.930;30960.064; 3345.291;  289.399
652.508;32560.068; 4580.947;  285.620
653.086;31547.271; 4471.603;  272.241
653.663;30689.977; 3913.259;  265.062
654.241;30830.381; 3653.914;  286.083
654.819;30236.834; 3740.570;  286.404
655.397;29547.738; 3838.226;  291.825
655.975;29854.543; 4056.881;  299.145
656.553;30496.596; 5045.537;  288.866
657.130;28181.000; 3750.193;  304.087
657.708;27972.953; 4448.849;  302.908
658.286;28432.107; 4239.504;  294.629
658.863;29221.512; 4303.160;  293.350
659.441;30550.916; 4352.816;  318.671
660.018;31672.719; 4105.472;  333.692
660.596;32422.123; 3372.127;  335.013
661.173;32813.578; 3977.783;  371.534
661.750;31874.781; 3825.439;  365.155
662.328;32492.336; 4520.095;  349.976
662.905;30722.889; 4031.750;  332.997
663.482;30108.094; 4153.406;  321.717
664.060;30592.098; 3866.062;  314.438
664.637;32400.951; 4557.718;  306.259
665.214;32450.506; 4270.374;  314.580
665.791;33668.207; 4046.029;  334.501
666.368;34561.512; 4028.685;  329.222
666.945;34265.418; 4527.341;  342.143
667.522;32995.371; 3790.996;  370.964
668.099;33401.176; 4106.652;  396.885
668.676;32951.277; 4212.308;  391.706
669.253;32949.082; 5037.964;  369.627
669.830;32473.686; 4820.620;  360.348
670.407;30881.939; 4094.275;  344.769
670.984;30994.244; 4109.931;  322.890
671.560;32396.947; 4560.586;  316.910
672.137;32395.303; 4023.242;  322.531
672.714;33941.656; 4470.898;  318.552
673.290;34155.762; 4363.554;  324.473
673.867;34560.414; 3879.210;  340.594
674.443;33818.219; 3729.865;  319.515
675.020;33421.172; 4351.521;  286.336
675.596;33057.977; 4097.177;  247.557
676.173;33731.379; 3594.833;  227.778
676.749;34039.934; 3166.488;  224.399
677.326;34904.336; 3494.144;  230.520
677.902;34382.691; 3828.800;  241.841
678.478;32609.195; 3597.456;  239.762
679.054;34836.848; 6086.111;  248.583
679.631;34287.402; 4403.767;  237.503
680.207;36376.258; 5235.423;  245.924
680.783;34160.660; 3330.079;  224.845
681.359;35999.066; 4114.734;  209.666
681.935;37971.418; 4252.390;  191.687
682.511;37942.723; 4203.046;  210.008
683.087;37140.277; 4362.702;  213.329
683.663;35998.781; 4008.357;  216.850
684.239;35470.586; 3634.013;  229.471
684.815;37055.688; 4588.669;  248.792
685.390;38692.145; 5264.325;  231.813
685.966;37920.445; 4205.980;  221.234
686.542;37132.551; 3664.636;  214.255
687.118;37499.406; 4321.292;  212.276
687.693;38589.258; 4425.947;  233.096
688.269;38808.211; 4003.603;  246.917
688.844;39361.918; 4418.259;  236.938
689.420;37695.621; 4131.915;  242.059
689.995;37190.223; 5041.570;  245.480
690.571;36541.379; 4952.226;  244.701
691.146;35474.633; 4018.882;  251.922
691.722;35883.785; 4329.538;  284.743
692.297;36497.789; 3970.194;  320.664
692.872;35706.645; 3830.849;  313.885
693.448;35528.699; 3698.505;  290.106
694.023;37304.551; 4209.161;  304.327
694.598;35888.555; 4198.816;  319.648
695.173;34233.660; 3954.472;  323.169
695.748;33754.914; 3453.128;  376.389
696.323;34391.469; 4236.784;  397.610
696.898;34045.070; 4719.439;  430.231
697.473;32632.324; 3440.095;  454.952
698.048;33745.777; 4089.751;  478.973
698.623;33660.484; 3561.407;  477.094
699.198;36133.086; 4175.063;  496.915
699.773;37475.090; 3843.718;  490.236
700.348;38368.844; 3742.374;  519.957
700.922;39983.699; 4277.030;  575.678
701.497;39915.551; 4234.686;  621.399
702.072;40067.305; 4597.341;  664.420
702.646;40013.660; 4588.997;  690.541
703.221;39696.914; 4318.653;  748.862
703.795;39291.168; 3663.308;  774.282
704.370;37447.324; 3039.964;  799.803
704.944;36996.777; 3971.620;  875.824
705.519;37224.480; 4291.276;  902.945
706.093;37100.684; 3779.931;  889.266
706.668;37518.637; 4389.587;  903.487
707.242;37357.492; 4572.243;  881.708
707.816;36809.746; 4035.899;  892.329
708.390;37004.949; 4073.554;  970.250
708.965;36270.902; 4295.210;  984.671
709.539;36337.906; 4033.866; 1026.092
710.113;36309.613; 4135.521; 1067.913
710.687;35217.414; 4533.177; 1166.434
711.261;32715.619; 3765.833; 1190.854
711.835;31858.574; 3734.489; 1197.275
712.409;30887.627; 3419.145; 1308.096
712.983;30795.281; 3403.800; 1461.617
713.557;31072.635; 3466.456; 1611.838
714.131;31986.689; 3981.112; 1554.359
714.704;32901.691; 3760.768; 1520.780
715.278;34876.898; 4125.423; 1575.101
715.852;36835.801; 4521.079; 1689.822
716.425;36122.004; 5096.735; 1829.143
716.999;32581.408; 3431.391; 2008.664
717.573;34030.313; 4361.046; 2000.485
718.146;34757.168; 4987.702; 1914.506
718.720;33399.520; 4233.358; 1818.026
719.293;33431.926; 4355.014; 1734.147
719.867;34292.980; 3831.669; 1716.968
720.440;36030.434; 4798.325; 1918.589
721.013;34633.785; 3845.981; 1975.410
721.587;34723.391; 3472.636; 2073.331
722.160;36115.246; 4573.292; 2357.852
722.733;35294.047; 4164.948; 2657.073
723.306;33910.004; 4096.604; 2703.894
723.880;34042.207; 4244.260; 2549.415
724.453;35027.461; 4814.915; 2414.336
725.026;34755.813; 3909.571; 2298.557
725.599;35655.566; 4235.227; 2168.778
726.172;35254.273; 4374.882; 2106.099
726.745;35229.277; 4278.538; 2253.320
727.318;36193.430; 4563.194; 2404.740
727.891;35507.684; 4276.850; 2680.161
728.463;35025.137; 4229.505; 2838.882
729.036;34362.641; 3757.161; 2755.103
729.609;33614.945; 3724.817; 2731.824
730.182;34853.148; 4470.473; 2855.645
730.754;34638.902; 3111.128; 2946.866
731.327;36146.957; 4353.784; 2840.187
731.900;34285.063; 3433.440; 2647.608
732.472;34187.766; 4109.096; 2473.929
733.045;32719.068; 3983.751; 2445.750
733.617;30284.623; 3381.407; 2511.771
734.190;30228.377; 4327.063; 2581.592
734.762;29992.781; 4124.719; 2710.813
735.334;30644.734; 4136.375; 3005.733
735.907;31698.988; 4077.030; 3154.954
736.479;34024.941; 4675.686; 3171.675
737.051;34604.398; 4344.342; 3217.496
737.623;34686.402; 4452.998; 3246.217
738.195;34207.355; 3758.653; 2985.238
738.768;33815.609; 3243.309; 2727.559
739.340;34185.762; 3915.965; 2666.880
739.912;35046.965; 4524.621; 2769.601
740.484;35465.621; 4286.276; 2731.422
741.056;35166.973; 4036.932; 2963.043
741.628;34914.129; 3719.588; 3361.364
742.199;35765.184; 4753.243; 3641.185
742.771;35062.336; 3585.899; 3932.005
743.343;36204.590; 3760.555; 4319.926
743.915;37340.043; 4289.210; 4706.647
744.487;36822.246; 4446.866; 4874.968
745.058;36701.402; 4369.522; 4616.589
745.630;37169.957; 4455.178; 4253.410
746.201;35874.309; 3864.834; 4056.131
746.773;36799.063; 4326.489; 3772.952
747.344;37721.367; 4043.145; 3642.473
747.916;38539.570; 4192.801; 3752.294
748.487;37444.875; 4515.457; 4106.215
749.059;36083.230; 3592.112; 4457.835
749.630;35704.031; 3772.768; 4366.457
750.201;35239.988; 4062.424; 4600.078
750.773;34045.191; 3751.080; 4658.499
751.344;34530.293; 4126.735; 4609.319
751.915;33719.047; 4046.391; 4526.440
752.486;32657.104; 3753.047; 4536.061
753.057;31567.406; 4161.703; 4383.282
753.628;30082.211; 3771.358; 4296.503
754.199;30160.965; 3937.014; 4383.224
754.770;31069.568; 4304.670; 4653.545
755.341;32274.572; 4586.326; 4831.666
755.912;32146.477; 3993.981; 4831.387
756.483;33109.980; 4446.637; 4735.808
757.054;33077.133; 3869.293; 4685.029
757.625;33132.039; 3628.948; 4994.250
758.195;33156.941; 3497.604; 5051.471
758.766;34505.098; 4129.260; 5317.792
759.337;33659.000; 3423.916; 5646.512
759.907;33496.953; 3456.572; 5404.133
760.478;34834.109; 3820.227; 5090.954
761.048;35419.961; 4370.883; 4871.175
761.619;34609.414; 4274.539; 4589.396
762.189;33773.121; 4029.195; 4171.317
762.760;33957.375; 4531.850; 3872.538
763.330;33847.629; 4403.506; 3832.259
763.900;33796.230; 4172.162; 4150.180
764.471;32972.934; 3653.817; 4529.801
765.041;34046.891; 4621.473; 4715.922
765.611;33510.191; 4302.129; 4681.442
766.181;32339.947; 4007.785; 4717.063
766.751;32268.252; 4068.440; 4710.285
767.321;32401.256; 3645.096; 4450.305
767.891;33744.160; 4140.752; 4274.126
768.461;34114.113; 3966.408; 4215.047
769.031;33788.617; 4119.063; 4173.068
769.601;34278.871; 4663.719; 4174.689
770.171;31802.375; 3379.375; 4229.310
770.741;31526.479; 3923.031; 4352.031
771.311;30654.082; 4359.687; 4336.652
771.880;29235.287; 3706.342; 4300.873
772.450;28513.541; 3729.998; 4387.194
773.020;28147.645; 3441.654; 4220.415
773.589;28432.799; 3721.309; 4075.835
774.159;28580.803; 3805.965; 4105.756
774.729;28546.557; 3782.621; 4114.978
775.298;27900.961; 3778.277; 3693.298
775.867;27637.164; 3785.932; 3343.119
776.437;28270.168; 4079.588; 3062.040
777.006;27835.422; 3434.244; 2927.161
777.576;28437.625; 4317.899; 3046.482
778.145;28027.529; 4267.555; 3230.203
778.714;28380.783; 4007.211; 3253.324
779.283;29953.637; 4285.867; 3129.745
779.853;29842.041; 4049.523; 2983.566
780.422;28869.395; 4019.178; 2929.887
780.991;28709.350; 4325.834; 2863.908
781.560;29414.453; 4683.490; 2948.029
782.129;28588.207; 4208.146; 3074.149
782.698;28987.662; 4681.801; 2893.970
783.267;28071.666; 3794.457; 2721.391
783.836;29475.520; 4200.113; 2659.712
784.404;29413.924; 3570.769; 2622.233
784.973;27463.977; 3114.424; 2600.754
785.542;26730.682; 4043.080; 2528.475
786.111;26387.734; 4693.736; 2404.396
786.679;24959.789; 4274.392; 2365.717
787.248;23765.143; 3443.047; 2498.438
787.817;23359.596; 3802.703; 2645.659
788.385;23432.900; 4547.359; 2709.280
788.954;21946.854; 3478.015; 2620.500
789.522;22961.607; 4392.670; 2625.422
790.090;22689.713; 3528.326; 2743.843
790.659;24709.717; 3823.982; 2635.163
791.227;26068.920; 3888.637; 2495.484
791.795;27188.273; 4177.293; 2413.705
792.364;27439.979; 3594.949; 2345.326
792.932;28845.781; 4216.605; 2350.447
793.500;29126.986; 3858.260; 2429.768
794.068;28096.490; 3427.916; 2513.589
794.636;27507.895; 3702.572; 2664.310
795.204;26642.797; 3295.228; 2721.431
795.772;26541.301; 3651.884; 2802.052
796.340;27269.105; 3756.539; 2847.173
796.908;26822.059; 3289.195; 2997.194
797.476;26176.313; 3509.851; 3151.615
798.044;24621.967; 3250.507; 3110.735
798.612;24520.422; 3958.162; 2931.656
799.180;25167.926; 4086.818; 2785.777
799.747;24814.779; 4008.474; 2899.098
800.315;23432.084; 3435.129; 2955.519
800.883;22423.637; 3162.785; 2948.940
801.450;22721.842; 3940.441; 2965.361
802.018;23317.045; 4183.097; 3070.582
802.585;23605.049; 3985.752; 3156.103
803.153;24103.703; 3678.408; 3199.524
803.720;24473.457; 3694.064; 3168.845
804.287;24195.811; 3920.720; 3248.366
804.855;24617.514; 4450.375; 3406.187
805.422;23884.518; 3871.031; 3430.907
805.989;23383.473; 3599.687; 3453.528
806.556;23764.877; 3635.343; 3612.649
807.124;25504.580; 4369.999; 3736.570
807.691;25234.984; 3546.654; 3770.491
808.258;25313.988; 4007.310; 3705.012
808.825;25557.293; 4518.966; 3828.733
809.392;26147.646; 4664.622; 3986.754
809.959;25464.500; 4210.277; 4410.075
810.526;25594.055; 4871.933; 4774.996
811.093;24233.258; 4452.589; 4754.217
811.659;22244.711; 3920.244; 4661.238
812.226;21053.516; 3952.900; 4672.559
812.793;20927.469; 4135.556; 4822.979
813.360;20901.924; 3920.212; 5189.800
813.926;21733.678; 4139.867; 5310.622
814.493;21789.582; 3501.523; 5414.542
815.060;22529.535; 3204.179; 5548.963
815.626;23622.590; 3510.835; 5452.284
816.193;25244.543; 4119.490; 5339.305
816.759;25101.098; 3683.146; 5544.426
817.325;24107.752; 3265.802; 5706.547
817.892;24705.105; 4356.458; 5623.468
818.458;24175.510; 4214.113; 5586.689
819.024;24650.014; 4563.769; 5647.910
819.591;23466.117; 3965.425; 5762.031
820.157;22581.471; 3501.081; 6284.452
820.723;23977.775; 4153.736; 6906.973
821.289;26099.078; 6094.392; 7086.894
821.855;23846.133; 4335.048; 7054.915
822.421;22369.787; 3823.704; 7112.035
822.987;21435.439; 3493.359; 7256.156
823.553;21998.795; 3910.015; 7538.077
824.119;22166.898; 4447.671; 7594.298
824.685;22009.352; 4588.327; 7613.619
825.251;21407.307; 4401.982; 7644.140
825.816;20967.811; 4882.638; 7720.261
826.382;19941.363; 4369.294; 8014.282
826.948;20245.719; 4403.950; 8281.503
827.513;19896.922; 3895.605; 8289.624
828.079;19546.727; 3576.261; 8587.045
828.645;19821.480; 4168.917; 8821.865
829.210;19201.283; 3531.573; 9054.486
829.776;20185.887; 4259.229; 9054.607
830.341;20019.691; 4372.884; 9415.628
830.906;19144.945; 4558.540; 9932.449
831.472;16976.699; 3631.196;10150.271
832.037;16870.654; 4391.851; 9420.391
832.602;15634.507; 3781.507; 8664.912
833.167;15905.511; 4080.163; 8491.933
833.733;16751.016; 4406.818; 8872.854
834.298;16345.219; 3607.474; 9370.575
834.863;16667.273; 4193.130; 9610.695
835.428;16879.928; 4207.786; 9655.616
835.993;17052.730; 4255.441; 9437.838
836.558;17174.285; 4280.097; 9441.459
837.123;18229.189; 5278.753; 9600.979
837.688;16676.592; 4213.409; 9798.301
838.253;16184.297; 4126.064; 9902.921
838.817;15717.601; 3883.720;10339.742
839.382;16185.104; 4656.376;10548.363
839.947;15306.608; 4115.032;10252.484
840.511;15836.462; 4840.688;10040.005
841.076;13858.466; 3118.343;10099.926
841.641;14689.271; 4214.999;10347.347
842.205;14312.074; 4203.655;10817.368
842.770;15128.028; 4926.311;11435.289
843.334;14320.082; 3974.966;12072.409
843.898;14272.636; 3791.622;12635.431
844.463;15056.790; 4626.278;12537.252
845.027;13810.994; 3865.933;12759.673
845.591;14092.947; 4439.589;12821.993
846.156;13235.802; 3789.245;12520.914
846.720;13656.956; 4383.901;12390.436
847.284;12935.210; 4146.557;12956.456
847.848;12389.863; 4274.212;13240.177
848.412;11733.367; 4046.868;13216.998
848.976;12217.972; 4699.523;13014.619
849.540;12730.125; 5159.179;12355.740
850.104;12413.429; 4709.835;12208.761
850.668;10832.783; 3227.491;12106.882
851.232;11106.987; 3376.147;11862.103
851.796;11926.091; 3985.802;11700.523
852.359;12350.095; 4439.458;12375.944
852.923;12481.849; 4567.114;13087.966
853.487;12406.553; 4417.770;13297.187
854.050;11045.457; 2773.425;13851.207
854.614;12273.511; 3852.081;14854.229
855.177;12583.765; 4208.737;15802.149
855.741;12346.019; 4218.393;16603.570
856.304;12137.173; 4520.048;16359.891
856.868;10745.477; 3557.704;14365.512
857.431;10680.230; 4062.360;13361.333
857.995;10235.334; 3881.016;14130.554
858.558;10306.838; 4193.671;14883.175
859.121;10533.393; 4476.327;15754.195
859.684;10215.896; 4152.983;15995.017
860.247;10201.000; 4082.639;15149.537
860.810;10202.854; 3864.294;14640.358
861.374;11660.107; 5157.950;15551.079
861.937;10014.611; 3541.606;16519.801
862.500;10350.516; 3787.261;16796.521
863.062;10431.470; 3591.917;16538.742
863.625;11358.924; 4180.573;16716.764
864.188;10872.027; 3833.229;17055.084
864.751;10566.281; 3832.885;17197.705
865.314;10727.636; 4093.540;17151.625
865.876;11089.640; 4534.196;17783.547
866.439;10958.843; 4379.852;19283.467
867.002;11348.947; 5062.507;20256.389
867.564;10589.701; 4600.163;20485.410
868.127; 9936.855; 4045.819;20789.730
868.689;10189.859; 4180.475;21981.951
869.252;10509.113; 4637.130;23803.771
869.814; 9565.316; 3729.786;24974.094
870.377;10057.871; 4236.442;24690.314
870.939;11567.175; 5865.098;23963.436
871.501; 9709.679; 4160.753;25167.156
872.063; 8519.782; 3072.409;26995.477
872.626; 8813.486; 3323.065;27443.098
873.188; 9721.591; 4151.721;26718.418
873.750; 9400.244; 3970.376;26558.840
874.312; 9087.948; 3832.032;26701.561
874.874; 9895.302; 4907.688;27970.582
875.436; 9319.206; 4414.344;29173.402
875.998; 9399.561; 4739.000;30376.623
876.560; 8950.864; 4437.655;32507.344
877.122; 8123.568; 3676.311;34833.066
877.683; 8475.672; 4339.967;36458.285
878.245; 7610.876; 3923.623;37248.207
878.807; 7866.330; 4325.278;36758.027
879.369; 7148.384; 3526.934;35223.551
879.930; 7416.938; 3585.590;33824.969
880.492; 8448.092; 4693.246;34436.492
881.053; 7398.096; 3646.901;37745.313
881.615; 7432.899; 3793.557;41184.633
882.176; 7490.653; 3968.213;42871.555
882.738; 7998.607; 4449.869;41693.074
883.299; 6748.961; 3203.524;40289.895
883.860; 6729.865; 3346.180;39231.215
884.422; 7691.719; 4350.835;38264.039
884.983; 6866.723; 3590.491;37171.859
885.544; 7313.927; 4101.147;35842.379
886.105; 7214.181; 4077.803;34810.000
886.666; 6931.185; 3842.459;34519.020
887.227; 6344.739; 3331.115;33905.641
887.788; 7157.893; 4272.770;34502.965
888.349; 6330.347; 3443.426;34241.785
888.910; 7078.301; 4410.082;33722.203
889.471; 6770.004; 4171.737;32539.625
890.032; 6578.258; 4028.393;31528.346
890.593; 6818.662; 4343.049;32655.068
891.153; 6382.116; 3991.705;33882.289
891.714; 5703.770; 3489.360;33318.711
892.275; 5666.524; 3520.016;31848.930
892.835; 6536.528; 4429.672;30339.752
893.396; 6413.282; 4337.328;30074.973
893.956; 5885.836; 3918.983;30338.393
894.517; 6014.040; 4183.639;30864.113
895.077; 5982.694; 4235.295;29766.734
895.638; 6552.948; 4893.951;26379.557
896.198; 5143.902; 3579.606;24056.277
896.758; 5925.005; 4392.262;22961.898
897.319; 5397.160; 3949.918;21772.020
897.879; 5390.063; 4009.573;20877.539
898.439; 4643.967; 3333.229;19509.461
898.999; 5505.971; 4251.885;17297.582
899.559; 5400.625; 4199.541;14712.002
900.119; 4670.229; 3592.197;12790.224
900.679; 5817.783; 4769.853;11586.744
901.239; 5324.087; 4335.508;10776.465
901.799; 5018.941; 4095.164; 9691.687
902.359; 4549.645; 3620.820; 8725.907
902.919; 4494.699; 3640.475; 8305.728
903.479; 4534.553; 3625.131; 8172.649
904.038; 4327.857; 3439.787; 7913.870
904.598; 3841.811; 3087.443; 7262.291
905.158; 4608.165; 3872.098; 6609.012
905.717; 4764.369; 3925.754; 6236.133
906.277; 4815.973; 4036.410; 5829.054
906.836; 5030.477; 4257.065; 5396.674
907.396; 4949.480; 4280.721; 4964.195
907.955; 4974.484; 4195.377; 4528.917
908.515; 4522.838; 3844.033; 4223.837
909.074; 4586.492; 3904.688; 4023.958
909.633; 4590.496; 3933.344; 4065.379
910.192; 5555.050; 4879.000; 4066.300
910.752; 4549.850; 3836.000; 3971.600
911.311; 4466.000; 3829.000; 3839.600
911.870; 4289.750; 3733.000; 3684.500
912.429; 5179.050; 4522.000; 3635.600
912.988; 5074.500; 4439.000; 3689.800
913.547; 4227.550; 3665.000; 3737.700
914.106; 4734.600; 4118.000; 3740.300
914.665; 4690.550; 4086.000; 3604.600
915.224; 5118.500; 4420.000; 3358.700
915.782; 4405.000; 3749.000; 3188.400
916.341; 5278.500; 4630.000; 3091.400
916.900; 4445.400; 3842.000; 3044.800
917.458; 4245.100; 3646.000; 2888.600
918.017; 4676.700; 4041.000; 2818.900
918.576; 4461.150; 3844.000; 2838.600
919.134; 3993.100; 3296.000; 2880.100
919.693; 4425.300; 3810.000; 2996.300
920.251; 4348.500; 3730.000; 3183.100
920.809; 4110.750; 3478.000; 3247.000
921.368; 4361.200; 3701.000; 3156.600
921.926; 4171.500; 3509.000; 2964.900
922.484; 4590.900; 4010.000; 2846.300
923.042; 4472.650; 3810.000; 2890.400
923.601; 5274.300; 4590.000; 2987.700
924.159; 4851.700; 4172.000; 3049.800
924.717; 4184.800; 3556.000; 3087.000
925.275; 4644.100; 4012.000; 3093.400
925.833; 3835.200; 3174.000; 3182.400
926.391; 4862.250; 4162.000; 3397.900
926.949; 4387.350; 3691.000; 3575.400
927.506; 4693.950; 4103.000; 3713.400
928.064; 4475.000; 3777.000; 3871.300
928.622; 4544.750; 3866.000; 4092.800
929.180; 4100.800; 3448.000; 4499.300
929.737; 3980.200; 3313.000; 4813.200
930.295; 4870.100; 4149.000; 5084.100
930.853; 4265.950; 3612.000; 5185.000
931.410; 4054.800; 3428.000; 5313.100
931.968; 4902.400; 4289.000; 5339.600
932.525; 4603.750; 4008.000; 5399.900
933.082; 3988.850; 3316.000; 5457.500
933.640; 4789.700; 4121.000; 5692.900
934.197; 4484.600; 3753.000; 5821.200
934.754; 4501.750; 3810.000; 5617.900
935.312; 4302.150; 3661.000; 5512.400
935.869; 5315.800; 4593.000; 5582.400
936.426; 4322.300; 3648.000; 5650.100
936.983; 4440.650; 3704.000; 5657.400
937.540; 4048.600; 3380.000; 5564.300
938.097; 4785.400; 4024.000; 5574.000
938.654; 4399.750; 3680.000; 5665.900
939.211; 4780.450; 4017.000; 5931.600
939.768; 4557.650; 3775.000; 6153.600
940.324; 4442.550; 3749.000; 6397.600
940.881; 4249.600; 3571.000; 6454.200
941.438; 5165.450; 4445.000; 6206.900
941.995; 5006.500; 4294.000; 6003.900
942.551; 4119.750; 3385.000; 6228.300
943.108; 4532.150; 3850.000; 6603.500
943.664; 4151.100; 3403.000; 7188.100
944.221; 5594.900; 4794.000; 7579.900
944.777; 4093.800; 3410.000; 7658.100
945.334; 4174.250; 3458.000; 7670.400
945.890; 4587.400; 3830.000; 7525.100
946.446; 4598.650; 3923.000; 7261.500
947.003; 4738.600; 4052.000; 6949.200
947.559; 5391.850; 4598.000; 6773.100
948.115; 5101.400; 4390.000; 6668.400
948.671; 4727.150; 4048.000; 6488.400
949.227; 3968.600; 3255.000; 6236.600
949.783; 3912.700; 3263.000; 6008.900
950.339; 4803.800; 4058.000; 5934.100
950.895; 5065.600; 4358.000; 5933.500
951.451; 4401.450; 3643.000; 6074.700
952.007; 4873.750; 4221.000; 6066.400
952.563; 4450.000; 3731.000; 5884.100
953.118; 4305.750; 3556.000; 5733.800
953.674; 4552.700; 3860.000; 5734.300
954.230; 4572.750; 3829.000; 6039.700
954.785; 4551.850; 3788.000; 6383.500
955.341; 4965.700; 4249.000; 6568.200
955.897; 3895.300; 3263.000; 6488.600
956.452; 4744.950; 4057.000; 6239.200
957.008; 5692.650; 5006.000; 5954.600
957.563; 5148.650; 4383.000; 5816.700
958.118; 4242.100; 3554.000; 5828.200
958.674; 4672.250; 3987.000; 5717.400
959.229; 5228.350; 4500.000; 5506.800
959.784; 4033.550; 3326.000; 5292.200
960.339; 5198.350; 4567.000; 5101.900
960.894; 4940.250; 4254.000; 5093.200
961.449; 4209.450; 3559.000; 5227.900
962.004; 6633.700; 5871.000; 5349.300
962.559; 4247.250; 3556.000; 5514.900
963.114; 3458.200; 2827.000; 5717.300
963.669; 4589.050; 3950.000; 5841.400
964.224; 4362.250; 3697.000; 5805.900
964.779; 4066.800; 3383.000; 5723.400
965.334; 5238.100; 4557.000; 5779.500
965.888; 4334.450; 3623.000; 5948.500
966.443; 5011.450; 4260.000; 6344.200
966.998; 3905.500; 3258.000; 6666.300
967.552; 4518.600; 3851.000; 6710.100
968.107; 4283.850; 3640.000; 6593.500
968.661; 4658.800; 3999.000; 6344.100
969.216; 4205.450; 3593.000; 6062.400
969.770; 4649.150; 4038.000; 5785.500
970.324; 4682.050; 4009.000; 5426.800
970.879; 4885.400; 4247.000; 5016.800
971.433; 4935.800; 4333.000; 4904.500
971.987; 4578.750; 3974.000; 4991.000
972.541; 4706.100; 4010.000; 4978.500
973.095; 5315.400; 4668.000; 4832.000
973.649; 3934.200; 3347.000; 4767.900
974.203; 4082.750; 3486.000; 4881.200
974.757; 4247.800; 3708.000; 4969.500
975.311; 4411.150; 3822.000; 4953.000
975.865; 4453.350; 3895.000; 4884.300
976.419; 4301.500; 3723.000; 4739.800
976.973; 4256.500; 3686.000; 4698.100
977.526; 4949.650; 4377.000; 4631.100
978.080; 3895.100; 3376.000; 4621.600
978.634; 4709.350; 4113.000; 4650.200
979.187; 4630.300; 4137.000; 4669.200
979.741; 5414.250; 4854.000; 4658.000
980.294; 3874.200; 3414.000; 4579.100
980.848; 3432.600; 2939.000; 4452.800
981.401; 4130.550; 3632.000; 4271.900
981.955; 4364.100; 3940.000; 4087.800
982.508; 3688.950; 3172.000; 3973.900
983.061; 4878.850; 4384.000; 3928.600
983.615; 4018.950; 3473.000; 3851.200
984.168; 3848.800; 3349.000; 3734.800
984.721; 4614.100; 4191.000; 3628.300
985.274; 4518.500; 4087.000; 3564.300
985.827; 4317.950; 3823.000; 3558.100
986.380; 3580.250; 3166.000; 3559.900
986.933; 4524.100; 4046.000; 3688.700
987.486; 4527.350; 4111.000; 3778.500
988.039; 4510.800; 4083.000; 3559.900
988.591; 4787.200; 4361.000; 3219.300
989.144; 3742.250; 3366.000; 2902.900
989.697; 3936.100; 3520.000; 2722.600
990.250; 4656.100; 4261.000; 2618.000
990.802; 3942.650; 3589.000; 2523.900
991.355; 5496.350; 5030.000; 2436.500
991.907; 4762.700; 4323.500; 2412.200
992.460; 4029.050; 3617.000; 2387.900
993.012; 4049.400; 3668.000; 2365.800
993.565; 3778.000; 3432.000; 2311.100
994.117; 5386.300; 5024.000; 2308.700
994.669; 3789.350; 3413.000; 2249.300
995.221; 4438.800; 4098.000; 2158.100
995.774; 4375.350; 4019.000; 2085.600
996.326; 4073.450; 3727.000; 2068.100
996.878; 4791.450; 4501.000; 1975.300
997.430; 3874.050; 3556.000; 1929.500
997.982; 4262.350; 3876.000; 1861.900
998.534; 4193.150; 3923.000; 1830.200
999.086; 4153.900; 3791.000; 1823.200
999.638; 3611.300; 3274.000; 1815.000
1000.190; 3937.050; 3607.000; 1796.600
1000.741; 4229.000; 3881.000; 1738.800
1001.293; 3849.600; 3563.000; 1666.200
1001.845; 3840.700; 3473.000; 1566.500
1002.396; 4285.300; 3970.000; 1471.900
1002.948; 4249.200; 3993.000; 1398.000
1003.500; 4166.950; 3836.000; 1356.500
1004.051; 5497.150; 5191.000; 1294.200
1004.603; 4692.200; 4414.000; 1190.000
1005.154; 3482.750; 3256.000; 1063.900
1005.705; 4272.950; 4018.000;  968.300
1006.257; 4207.650; 3899.000;  889.800
1006.808; 4078.350; 3803.000;  801.500
1007.359; 4670.300; 4392.000;  716.400
1007.910; 3840.450; 3589.000;  639.100
1008.461; 4461.000; 4196.000;  561.600
1009.013; 3467.550; 3309.000;  500.400
1009.564; 4874.900; 4649.000;  476.100
1010.115; 3518.000; 3257.000;  431.600
1010.665; 3599.300; 3424.000;  409.300
1011.216; 4048.150; 3845.000;  399.700
1011.767; 4227.050; 4044.000;  388.100
1012.318; 4410.400; 4250.000;  381.400
1012.869; 4074.300; 3860.000;  375.400
1013.419; 3596.900; 3427.000;  357.600
1013.970; 4067.850; 3860.000;  358.300
1014.521; 3703.100; 3485.000;  344.100
1015.071; 4081.200; 3892.000;  322.800
1015.622; 3815.750; 3631.000;  320.600
1016.172; 3588.650; 3383.000;  301.700
1016.723; 3687.100; 3489.000;  289.800
1017.273; 3638.900; 3526.000;  287.600
1017.823; 3949.300; 3811.000;  278.700
1018.374; 3701.750; 3551.000;  274.400
1018.924; 4415.400; 4161.000;  283.200
1019.474; 4375.850; 4104.000;  278.500
1020.024; 3965.100; 3824.000;  274.700
1020.574; 4464.750; 4301.000;  272.700
1021.124; 4132.150; 3987.000;  278.400
1021.674; 3358.750; 3150.000;  269.200
1022.224; 4389.500; 4195.000;  267.800
1022.774; 4057.350; 3879.000;  258.100
1023.324; 4705.250; 4534.000;  260.000
1023.874; 5550.050; 5351.000;  260.700
1024.423; 3739.400; 3520.000;  252.700
1024.973; 3660.350; 3495.000;  234.700
1025.523; 3775.950; 3573.000;  226.500
1026.072; 3706.450; 3508.000;  225.500
1026.622; 4150.700; 4023.000;  210.100
1027.172; 4407.500; 4313.000;  213.000
1027.721; 3647.700; 3489.000;  207.700
1028.270; 4117.050; 3992.000;  205.400
1028.820; 3933.700; 3787.000;  201.000
1029.369; 3756.250; 3643.000;  201.000
1029.918; 3962.850; 3746.000;  198.400
1030.468; 3415.050; 3248.000;  199.200
1031.017; 3918.600; 3709.000;  192.600
1031.566; 3739.950; 3525.000;  197.400
1032.115; 4311.650; 4097.000;  188.300
1032.664; 3673.150; 3518.000;  193.700
1033.213; 4580.900; 4389.000;  191.900
1033.762; 3911.950; 3768.000;  184.500
1034.311; 4182.050; 3988.000;  194.300
1034.860; 4290.500; 4078.000;  192.300
1035.408; 4538.400; 4398.000;  182.600
1035.957; 4474.050; 4358.000;  173.900
1036.506; 3198.250; 3109.000;  185.200
1037.055; 5340.900; 5123.000;  182.500
1037.603; 4136.200; 3956.000;  167.600
1038.152; 3232.650; 3090.000;  168.200
1038.700; 3581.350; 3438.000;  169.600
1039.249; 4219.650; 4034.000;  164.300
1039.797; 3937.750; 3767.000;  169.600
1040.345; 4396.050; 4233.000;  167.100
1040.894; 3892.300; 3780.000;  164.400
1041.442; 3939.950; 3804.000;  158.300
1041.990; 3453.000; 3284.000;  160.000
1042.538; 3284.550; 3161.000;  156.800
1043.087; 3487.050; 3312.000;  146.600
1043.635; 4225.400; 4061.000;  162.400
1044.183; 3653.200; 3571.000;  156.300
1044.731; 3571.350; 3433.000;  158.100
1045.279; 4223.250; 4006.000;  154.500
1045.827; 5731.600; 5551.000;  146.200
1046.374; 3134.600; 2964.000;  154.000
1046.922; 3654.400; 3605.000;  149.000
1047.470; 4344.750; 4204.000;  154.900
1048.018; 4107.200; 3932.000;  148.400
1048.565; 4498.550; 4297.000;  146.300
1049.113; 3420.200; 3243.000;  156.100
1049.660; 3902.750; 3728.000;  154.300
1050.208; 4204.900; 4077.000;  149.400
1050.755; 3766.250; 3551.000;  157.500
1051.303; 4337.450; 4216.000;  157.700
1051.850; 3955.200; 3803.000;  152.800
1052.397; 2894.100; 2721.000;  146.300
1052.945; 3850.150; 3744.000;  149.500
1053.492; 4720.200; 4593.000;  149.300
1054.039; 4572.350; 4427.000;  163.100
1054.586; 3468.850; 3319.000;  150.400
1055.133; 4398.600; 4270.000;  153.500
1055.680; 4046.800; 3919.000;  155.600
1056.227; 3343.950; 3220.000;  148.700
1056.774; 5047.300; 4903.000;  151.500
1057.321; 3234.350; 3117.000;  143.700
1057.868; 4067.600; 3906.000;  145.300
1058.415; 4126.150; 4007.000;  153.500
1058.961; 4276.050; 4121.000;  149.900
1059.508; 4023.750; 3853.000;  147.300
1060.055; 3661.500; 3518.000;  151.000
1060.601; 3897.050; 3742.000;  148.700
1061.148; 3933.850; 3805.000;  153.800
1061.694; 3730.250; 3586.000;  150.500
1062.241; 3736.650; 3590.000;  149.100
1062.787; 4203.950; 4050.000;  153.000
1063.334; 5107.400; 4934.000;  153.200
1063.880; 4257.700; 4100.000;  148.400
1064.426; 4501.850; 4312.000;  149.200
1064.972; 3751.200; 3646.000;  156.400
1065.518; 3547.400; 3432.000;  144.700
1066.065; 3975.750; 3868.000;  139.400
1066.611; 3773.100; 3641.000;  139.300
1067.157; 4045.500; 4017.000;  138.400
1067.703; 4245.450; 4134.000;  142.700
1068.249; 3760.400; 3589.000;  136.700
1068.794; 3946.100; 3879.000;  139.400
1069.340; 3623.350; 3464.000;  142.700
1069.886; 3741.850; 3628.000;  135.600
1070.432; 3370.450; 3246.000;  133.400
1070.977; 3813.200; 3718.000;  138.200
1071.523; 3551.050; 3385.000;  132.400
1072.068; 3638.850; 3519.000;  132.700
1072.614; 3280.700; 3125.000;  127.000
1073.160; 4412.000; 4282.000;  131.300
1073.705; 3627.950; 3494.000;  135.700
1074.250; 3520.100; 3346.000;  133.000
1074.796; 4174.300; 4041.000;  138.000
1075.341; 4213.650; 4082.000;  137.300
1075.886; 3712.750; 3560.000;  134.300
1076.431; 4177.700; 4028.000;  138.200
1076.976; 4094.500; 3970.000;  132.200
1077.521; 3670.400; 3626.000;  138.900
1078.067; 3670.400; 3526.000;  128.600
1078.612; 4255.000; 4149.000;  138.900
1079.156; 3807.400; 3659.000;  128.900
1079.701; 4445.400; 4292.000;  129.700
1080.246; 4441.900; 4366.000;  128.600
1080.791; 4023.800; 3908.000;  122.600
1081.336; 4199.100; 4072.000;  122.000
1081.880; 4158.250; 4039.000;  123.900
1082.425; 3608.350; 3467.000;  120.600
1082.970; 4595.950; 4476.000;  124.500
1083.514; 3808.700; 3647.000;  112.000
1084.059; 3715.700; 3607.000;  120.700
1084.603; 3616.700; 3485.000;  116.000
1085.147; 4139.250; 3993.000;  116.300
1085.692; 4628.700; 4527.000;  108.200
1086.236; 3192.900; 3093.000;  114.600
1086.780; 4858.300; 4729.000;  118.900
1087.325; 4194.600; 4146.000;  120.400
1087.869; 3927.850; 3788.000;  110.500
1088.413; 4514.800; 4375.000;  114.000
1088.957; 3396.550; 3298.000;  114.300
1089.501; 4971.950; 4820.000;  114.600
1090.045; 4687.300; 4580.000;  114.200
1090.589; 3611.400; 3537.000;  105.500
1091.133; 4314.300; 4119.000;  111.800
1091.676; 3727.800; 3600.000;  110.900
1092.220; 3846.800; 3661.000;  110.100
1092.764; 4557.800; 4413.000;  108.100
1093.307; 4314.100; 4230.000;  109.900
1093.851; 3557.350; 3439.000;  107.500
1094.395; 4395.550; 4305.000;   96.200
1094.938; 4051.850; 3970.000;   99.300
1095.482; 3548.650; 3534.000;   97.700
1096.025; 4571.350; 4414.000;   84.900
1096.568; 5007.650; 4867.000;   88.500
1097.112; 3193.050; 3088.000;   95.700
1097.655; 3808.400; 3686.000;   97.300
1098.198; 3818.400; 3670.000;   92.600
1098.741; 3968.450; 3878.000;   91.800
1099.285; 4202.400; 4055.000;   88.000
1099.828; 2776.950; 2659.000;   91.700
1100.371; 3915.500; 3824.000;   89.900
1100.914; 4417.250; 4302.000;   91.500
1101.457; 4374.600; 4198.000;   88.100
1101.999; 3715.200; 3617.000;   86.400
1102.542; 4098.250; 4009.000;   90.800
1103.085; 4256.650; 4097.000;   95.400
1103.628; 4987.300; 4902.000;   97.700
1104.170; 3753.700; 3646.000;   84.000
1104.713; 4156.000; 4060.000;   93.900
1105.256; 3552.300; 3444.000;   93.000
1105.798; 3197.950; 3080.000;   85.600
1106.341; 4729.950; 4574.000;   87.100
1106.883; 3339.050; 3214.000;   85.200
1107.425; 4336.900; 4231.000;   85.000
1107.968; 3987.600; 3945.000;   84.300
1108.510; 4433.500; 4279.000;   88.200
1109.052; 3981.500; 3888.000;   86.600
1109.594; 3582.750; 3518.000;   79.400
1110.136; 4157.350; 4039.000;   81.700
1110.679; 4050.400; 3940.000;   75.500
1111.221; 3922.600; 3787.000;   88.500
1111.763; 3581.150; 3459.000;   87.700
1112.304; 3515.050; 3440.000;   89.700
1112.846; 4322.650; 4247.000;   81.900
1113.388; 6241.750; 6035.000;   86.400
1113.930; 4507.500; 4407.000;   84.700
1114.472; 3918.500; 3905.000;   78.900
1115.013; 3544.150; 3441.000;   78.100
1115.555; 3802.800; 3729.000;   84.900
1116.097; 3704.550; 3669.000;   79.200
1116.638; 4472.750; 4355.000;   83.700
1117.180; 4303.600; 4188.000;   85.500
1117.721; 3700.950; 3616.000;   78.800
1118.262; 4413.750; 4212.000;   77.400
1118.804; 4129.550; 4020.000;   81.400
1119.345; 3753.750; 3609.000;   77.800
1119.886; 4597.150; 4497.000;   81.200
1120.427; 3805.550; 3747.000;   77.200
1120.969; 3877.500; 3845.000;   75.200
1121.510; 3640.250; 3557.000;   80.900
1122.051; 4711.450; 4606.000;   77.300
1122.592; 4294.700; 4214.000;   73.300
1123.133; 3527.050; 3499.000;   90.100
1123.673; 4615.500; 4514.000;   75.000
1124.214; 3970.750; 3782.000;   80.600
1124.755; 4185.050; 4090.000;   78.000
1125.296; 4041.400; 3938.000;   77.500
1125.836; 4486.750; 4385.000;   80.400
1126.377; 3889.850; 3792.000;   75.600
1126.918; 4044.500; 3944.000;   78.900
1127.458; 4063.500; 3928.000;   78.000
1127.999; 4278.850; 4150.000;   76.100
1128.539; 4537.200; 4372.000;   81.400
1129.079; 4140.000; 4003.000;   77.400
1129.620; 3625.600; 3583.000;   68.000
1130.160; 3507.800; 3425.000;   77.500
1130.700; 4176.650; 4054.000;   76.300
1131.240; 4193.400; 4087.000;   66.800
1131.781; 4047.900; 3951.000;   70.600
1132.321; 3926.400; 3893.000;   77.200
1132.861; 3654.050; 3562.000;   70.400
1133.401; 3920.600; 3742.000;   68.700
1133.941; 4093.900; 3959.000;   68.500
1134.481; 3939.200; 3801.000;   75.900
1135.020; 3974.100; 3872.000;   66.600
1135.560; 4400.450; 4330.000;   68.100
1136.100; 3254.150; 3174.000;   64.900
1136.640; 3317.500; 3259.000;   72.500
1137.179; 3457.500; 3350.000;   69.700
1137.719; 3963.000; 3813.000;   68.400
1138.258; 3839.400; 3720.000;   67.000
1138.798; 4319.300; 4176.000;   69.600
1139.337; 3124.950; 3039.000;   64.000
1139.877; 4187.400; 4088.000;   64.500
1140.416; 5743.300; 5686.000;   74.900
1140.955; 3456.200; 3385.000;   67.200
1141.494; 4418.750; 4307.000;   69.900
1142.034; 3807.000; 3743.000;   59.100
1142.573; 4230.050; 4119.000;   65.900
1143.112; 3620.800; 3522.000;   70.600
1143.651; 3499.300; 3460.000;   67.100
1144.190; 4535.050; 4441.000;   56.700
1144.729; 3964.850; 3927.000;   61.800
1145.267; 3803.600; 3655.000;   62.500
1145.806; 4170.700; 4052.000;   68.500
1146.345; 4199.450; 4113.000;   58.300
1146.884; 4118.800; 4052.000;   63.100
1147.422; 3462.550; 3387.000;   54.800
1147.961; 4673.050; 4585.000;   67.600
1148.500; 4385.900; 4261.000;   64.700
1149.038; 4184.150; 4114.000;   61.000
1149.577; 4605.250; 4457.000;   65.100
1150.115; 2917.200; 2801.000;   58.100
1150.653; 4002.300; 3880.000;   60.500
1151.192; 3639.450; 3604.000;   56.600
1151.730; 4314.000; 4194.000;   62.300
1152.268; 3855.500; 3780.000;   55.500
1152.806; 3769.250; 3716.000;   58.200
1153.344; 3761.850; 3681.000;   55.000
1153.882; 3918.700; 3899.000;   64.200
1154.421; 3049.150; 2988.000;   60.300
1154.958; 3946.550; 3887.000;   58.100
1155.496; 4237.100; 4161.000;   55.800
1156.034; 4774.800; 4640.000;   61.000
1156.572; 4391.850; 4243.000;   56.200
1157.110; 3070.100; 2949.000;   53.200
1157.647; 4441.250; 4327.000;   57.400
1158.185; 3719.500; 3664.000;   55.500
1158.723; 3351.000; 3265.000;   58.000
1159.260; 4603.150; 4469.000;   53.700
1159.798; 4356.200; 4286.000;   51.700
1160.335; 4164.000; 4055.000;   59.600

