source_left
Integration time [ms]: 2924.932
Averaging Nr. [scans]: 20
Smoothing Nr. [pixels]: 0
Data measured with spectrometer [name]: 7414430SP
Wave   ;Sample   ;Dark     ;Reference
[nm]   ;[counts] ;[counts] ;[counts] 

288.544; 4097.528; 4004.872;    6.613
289.143; 3381.539; 3299.256;   14.216
289.742; 4382.772; 4251.540;   11.816
290.341; 4168.679; 4111.361;   -4.936
290.940; 3807.206; 3777.373;    0.852
291.538; 4822.389; 4707.574;    1.792
292.137; 4262.591; 4170.812;    6.262
292.736; 5551.779; 5393.361;    8.164
293.335; 3897.155; 3778.989;   -6.418
293.934; 4198.751; 4117.811;   -2.904
294.532; 5946.426; 5801.267;   -5.162
295.131; 4712.819; 4640.547;  -10.283
295.730; 4527.927; 4500.288;  -16.141
296.328; 4375.229; 4365.994;  -14.740
296.927; 4331.020; 4342.634;   -8.768
297.525; 4333.280; 4336.466;  -15.255
298.124; 3513.368; 3531.862;  -22.063
298.722; 4212.977; 4214.137;  -14.796
299.321; 3893.226; 3899.753;  -10.466
299.919; 4184.333; 4130.490;  -10.979
300.518; 3800.721; 3843.040;  -12.077
301.116; 3792.900; 3792.590;  -13.509
301.715; 4031.598; 4046.269;  -11.939
302.313; 3897.998; 3893.503;  -15.424
302.911; 4153.968; 4135.330;  -19.833
303.509; 5436.272; 5368.340;   -3.567
304.108; 4282.985; 4284.731;   -9.553
304.706; 4597.073; 4613.959;   -8.582
305.304; 4648.600; 4704.674;  -12.348
305.902; 4437.610; 4461.188;  -14.411
306.500; 4129.032; 4117.403;   -7.194
307.098; 4257.388; 4232.906;   -9.322
307.696; 4525.904; 4587.237;  -19.192
308.294; 4189.807; 4212.946;   -9.736
308.892; 4368.440; 4331.528;  -15.482
309.490; 4028.088; 4051.140;  -14.107
310.088; 4632.620; 4668.568;  -15.862
310.686; 4757.709; 4711.803;  -10.781
311.284; 4466.801; 4510.912;  -14.878
311.882; 4152.901; 4139.527;   -9.948
312.480; 3976.982; 3988.955;  -15.503
313.078; 4818.886; 4791.284;  -17.262
313.675; 3944.781; 3884.403;   -3.694
314.273; 4719.773; 4709.361;  -18.246
314.871; 3259.244; 3276.640;  -15.190
315.468; 3742.468; 3754.330;  -12.633
316.066; 4001.311; 4052.890;   -5.765
316.664; 3731.719; 3794.564;  -14.317
317.261; 5495.037; 5555.902;   -8.677
317.859; 4617.929; 4652.396;  -11.804
318.456; 5011.621; 5011.571;   -3.107
319.054; 4712.487; 4716.137;   -3.062
319.651; 4489.324; 4529.130;   -6.706
320.249; 4915.024; 4977.130;   -5.206
320.846; 4237.749; 4283.206;   -4.679
321.443; 5104.759; 5160.887;   -7.920
322.041; 4977.709; 5026.121;  -14.105
322.638; 4233.534; 4282.577;   -6.263
323.235; 3918.998; 3954.503;   -7.424
323.833; 4498.727; 4451.606;  -14.765
324.430; 3588.094; 3607.409;  -10.550
325.027; 5382.508; 5410.565;   -9.951
325.624; 3712.357; 3726.628;   -3.712
326.221; 4023.587; 3951.203;   -9.368
326.818; 4932.921; 4893.956;   -5.637
327.415; 4351.151; 4333.744;   -6.699
328.012; 3956.452; 3991.363;   -5.713
328.609; 4199.651; 4204.979;   -9.983
329.206; 4603.567; 4595.310;   -7.154
329.803; 4242.274; 4225.813;   -1.682
330.400; 3992.160; 3877.572;   -2.741
330.997; 4738.865; 4713.837;   -4.339
331.594; 4578.218; 4493.480;  -10.278
332.191; 4062.354; 4046.772;   -6.967
332.787; 4882.511; 4859.509;   -0.480
333.384; 4291.767; 4236.477;  -10.333
333.981; 4696.459; 4744.055;  -19.900
334.578; 3905.274; 3922.830;  -19.816
335.174; 4065.646; 4050.195;  -15.844
335.771; 4833.576; 4859.239;  -12.670
336.367; 4008.811; 4053.226;  -21.124
336.964; 4593.305; 4616.107;  -18.226
337.561; 4152.623; 4199.910;  -13.311
338.157; 5419.986; 5375.854;  -19.006
338.754; 4617.327; 4619.875;  -19.418
339.350; 4075.444; 4118.209;  -29.433
339.946; 4389.567; 4391.344;  -16.622
340.543; 4948.508; 4961.918;  -16.744
341.139; 4132.816; 4154.743;  -21.841
341.735; 4530.280; 4668.368;  -25.012
342.332; 3977.817; 4021.362;  -19.156
342.928; 4660.979; 4737.046;  -20.443
343.524; 4521.146; 4572.464;  -14.397
344.120; 4363.240; 4397.049;  -20.654
344.716; 4128.239; 4221.877;   -5.730
345.313; 4744.956; 4712.446;  -10.929
345.909; 3538.777; 3655.193;  -19.843
346.505; 4348.754; 4426.506;  -19.645
347.101; 4934.629; 5000.581;   -9.618
347.697; 4674.405; 4692.275;  -10.305
348.293; 3548.392; 3620.353;  -23.189
348.889; 4398.194; 4417.444;  -18.418
349.485; 3961.784; 3980.762;  -10.476
350.081; 4572.606; 4612.747;  -17.320
350.676; 4041.360; 4079.775;  -21.088
351.272; 4830.719; 4856.050;  -12.821
351.868; 4568.822; 4536.760;  -13.165
352.464; 4224.894; 4249.741;  -12.464
353.059; 3734.680; 3782.819;  -22.547
353.655; 4641.777; 4661.791;   -9.379
354.251; 4472.119; 4499.201;   -8.266
354.846; 4396.971; 4412.991;  -17.705
355.442; 4425.765; 4481.572;   -9.317
356.038; 4431.676; 4525.406;  -11.049
356.633; 4280.268; 4281.432;  -10.006
357.229; 4256.224; 4303.316;  -13.120
357.824; 4134.799; 4140.241;  -15.647
358.420; 3973.541; 4018.266;  -19.204
359.015; 4031.330; 4067.584;  -12.263
359.610; 4569.704; 4606.188;  -16.421
360.206; 3476.025; 3551.018;  -20.074
360.801; 3714.116; 3838.341;  -13.277
361.396; 4271.617; 4259.344;   -5.822
361.992; 3916.749; 3982.240;  -11.247
362.587; 3937.581; 3985.521;  -21.502
363.182; 4070.952; 4146.565;   -7.461
363.777; 4437.141; 4434.884;   -8.719
364.372; 4417.688; 4450.940;  -14.590
364.967; 4056.955; 4072.359;  -15.145
365.563; 4897.483; 4938.675;   -7.192
366.158; 4028.448; 4048.153;   -5.662
366.753; 3788.446; 3835.066;   -8.378
367.348; 4476.606; 4576.362;  -14.990
367.942; 4128.605; 4205.275;   -6.005
368.537; 4504.010; 4557.541;  -11.504
369.132; 4198.552; 4253.185;  -10.576
369.727; 3727.094; 3805.293;  -12.573
370.322; 3442.304; 3446.272;  -11.560
370.917; 4290.960; 4289.775;  -10.388
371.511; 5331.400; 5351.712;   -9.161
372.106; 4771.705; 4822.359;  -10.245
372.701; 3465.861; 3432.243;  -10.158
373.296; 5278.225; 5310.169;   -4.719
373.890; 3888.131; 3894.521;  -11.802
374.485; 4211.620; 4274.071;  -13.500
375.079; 4522.753; 4625.038;   -6.276
375.674; 5003.864; 5053.103;   -0.447
376.268; 4179.550; 4183.562;   -6.916
376.863; 3484.325; 3615.571;  -14.483
377.457; 4012.127; 4058.109;   -6.903
378.052; 4722.474; 4868.634;   -9.844
378.646; 4593.517; 4700.512;  -12.601
379.240; 4453.721; 4535.690;  -14.715
379.835; 3895.500; 3941.328;  -12.331
380.429; 3387.176; 3420.872;   -9.074
381.023; 4862.875; 4920.868;   -1.729
381.617; 4198.575; 4245.103;  -13.714
382.212; 4215.505; 4297.125;   -7.060
382.806; 4732.177; 4785.109;   -2.303
383.400; 4211.338; 4277.259;   -0.815
383.994; 4143.392; 4258.437;   -4.429
384.588; 4368.536; 4396.703;   -6.261
385.182; 4579.583; 4632.528;    0.008
385.776; 4479.182; 4437.672;   -3.247
386.370; 4279.254; 4346.740;   -1.030
386.964; 4298.301; 4357.947;   -1.346
387.558; 3707.273; 3764.463;   -2.020
388.152; 4316.837; 4357.790;   -5.345
388.745; 5212.741; 5306.734;   -2.774
389.339; 4651.354; 4780.656;    3.510
389.933; 4294.538; 4349.325;    5.280
390.527; 5560.990; 5602.647;    2.610
391.120; 3735.139; 3857.112;   -7.914
391.714; 4486.646; 4509.531;   -1.903
392.308; 5019.950; 5092.478;    6.023
392.901; 4078.412; 4174.247;   -4.103
393.495; 3782.852; 3904.268;    3.284
394.089; 4968.521; 5029.075;    8.655
394.682; 4503.528; 4644.196;    2.312
395.275; 4663.848; 4735.237;   -7.402
395.869; 4321.446; 4388.000;   -1.072
396.462; 3944.153; 4044.653;    6.454
397.056; 4980.904; 5062.422;    8.494
397.649; 4766.383; 4871.228;    1.599
398.242; 4625.516; 4745.809;    3.153
398.836; 4953.640; 5108.413;   11.395
399.429; 4020.173; 4053.697;   14.695
400.022; 4284.763; 4396.715;    3.627
400.615; 5297.016; 5410.425;    8.383
401.208; 4417.088; 4546.560;   13.295
401.802; 4515.709; 4629.921;    6.211
402.395; 4477.313; 4625.715;    7.227
402.988; 4517.886; 4596.787;    2.700
403.581; 4110.687; 4213.322;   11.225
404.174; 4373.714; 4471.635;   18.922
404.767; 4071.117; 4175.896;   14.169
405.360; 4032.518; 4173.365;    8.999
405.953; 4944.131; 5057.438;   13.138
406.545; 4722.878; 4833.878;   13.937
407.138; 3980.234; 4114.612;   10.869
407.731; 3974.298; 4069.622;   12.768
408.324; 4240.492; 4273.654;   22.921
408.917; 4435.083; 4523.528;   15.308
409.509; 4845.319; 5007.134;   12.239
410.102; 4223.941; 4357.968;   13.741
410.695; 4307.603; 4401.719;   20.249
411.287; 3873.115; 3967.872;   21.793
411.880; 3774.722; 3921.375;   22.965
412.472; 3961.145; 4132.297;   15.082
413.065; 4141.083; 4308.910;   23.423
413.657; 3725.346; 3820.216;   21.077
414.250; 4179.552; 4250.866;   12.349
414.842; 4373.381; 4509.203;   20.423
415.434; 3713.577; 3809.557;   19.906
416.027; 4187.970; 4325.970;   26.574
416.619; 4648.058; 4790.135;   15.705
417.211; 3858.861; 3975.460;   17.791
417.804; 4022.556; 4173.345;   30.244
418.396; 3951.714; 4008.785;   24.177
418.988; 4267.821; 4365.438;   24.904
419.580; 3668.148; 3810.303;   20.692
420.172; 3493.609; 3614.520;   22.275
420.764; 4321.518; 4434.264;   26.773
421.356; 4152.345; 4188.661;   25.731
421.948; 4375.076; 4444.088;   24.876
422.540; 4368.334; 4483.511;   30.042
423.132; 3855.786; 3983.983;   32.728
423.724; 3589.448; 3637.839;   21.317
424.316; 4016.455; 4112.873;   29.359
424.908; 3809.436; 3997.367;   28.798
425.500; 4191.817; 4264.327;   30.512
426.092; 4166.445; 4340.961;   26.741
426.683; 4507.088; 4602.689;   27.029
427.275; 4120.962; 4322.062;   32.611
427.867; 4264.263; 4357.680;   33.796
428.458; 4744.620; 4719.802;   34.453
429.050; 4391.826; 4472.920;   34.255
429.642; 4795.383; 4904.574;   39.082
430.233; 3536.604; 3700.852;   41.138
430.825; 4739.431; 4863.868;   31.581
431.416; 4514.610; 4599.205;   35.755
432.008; 4138.913; 4258.065;   40.566
432.599; 4143.285; 4266.196;   46.322
433.190; 4083.400; 4185.377;   46.897
433.782; 3591.205; 3748.174;   41.069
434.373; 5680.605; 5734.475;   48.778
434.964; 3787.538; 3935.906;   50.078
435.556; 4035.597; 4172.583;   52.381
436.147; 4870.898; 4922.821;   38.251
436.738; 4460.733; 4581.724;   47.237
437.329; 4568.192; 4636.000;   61.304
437.920; 4181.463; 4312.915;   48.611
438.511; 3510.395; 3755.493;   44.910
439.103; 3904.944; 4047.706;   62.404
439.694; 4294.979; 4411.228;   63.075
440.285; 4719.239; 4875.909;   61.033
440.876; 5459.376; 5532.987;   57.249
441.466; 3561.380; 3600.550;   61.306
442.057; 4136.605; 4178.541;   65.773
442.648; 4745.132; 4815.787;   65.676
443.239; 3883.189; 4012.525;   55.963
443.830; 4429.099; 4556.653;   69.631
444.421; 4072.473; 4164.494;   69.943
445.011; 4324.131; 4444.168;   72.791
445.602; 4673.023; 4821.428;   68.848
446.193; 2915.511; 3018.191;   80.044
446.783; 3873.859; 3949.635;   82.599
447.374; 4268.475; 4376.666;   77.419
447.964; 4465.927; 4640.990;   72.605
448.555; 5114.101; 5200.660;   82.041
449.145; 4068.162; 4128.810;   76.230
449.736; 5051.729; 5093.613;   75.545
450.326; 4415.646; 4477.328;   67.945
450.917; 4130.606; 4196.076;   77.598
451.507; 3640.820; 3757.701;   68.027
452.097; 4622.500; 4683.275;   67.771
452.688; 4519.096; 4642.245;   62.884
453.278; 3278.889; 3406.741;   65.512
453.868; 4944.085; 4984.095;   71.796
454.458; 3945.833; 4058.473;   60.956
455.048; 4348.101; 4482.895;   62.356
455.639; 3366.020; 3443.851;   58.782
456.229; 4294.795; 4431.926;   65.209
456.819; 4546.469; 4636.764;   61.466
457.409; 4750.321; 4802.470;   59.967
457.999; 4448.009; 4534.702;   58.093
458.589; 4059.103; 4049.433;   59.536
459.179; 4330.063; 4389.261;   55.994
459.769; 3696.763; 3801.729;   43.624
460.358; 4825.460; 4861.320;   46.978
460.948; 4103.004; 4203.052;   49.821
461.538; 3900.943; 3886.752;   54.678
462.128; 3924.695; 4015.926;   49.309
462.717; 4166.032; 4282.368;   52.774
463.307; 4183.856; 4202.590;   48.101
463.897; 3826.154; 3841.817;   45.606
464.486; 5097.297; 5152.632;   45.010
465.076; 4349.979; 4421.511;   45.519
465.666; 3741.345; 3791.290;   50.058
466.255; 4699.675; 4804.949;   44.463
466.845; 3829.670; 3955.533;   41.206
467.434; 4266.074; 4347.861;   44.847
468.023; 3749.784; 3783.693;   46.760
468.613; 4174.253; 4233.433;   39.736
469.202; 3667.969; 3741.830;   46.461
469.791; 4223.797; 4303.615;   47.944
470.381; 4235.466; 4319.803;   47.529
470.970; 4065.127; 4070.103;   43.773
471.559; 4271.836; 4293.165;   41.646
472.148; 3784.483; 3868.137;   37.914
472.738; 4370.204; 4408.269;   48.071
473.327; 3510.273; 3583.690;   47.871
473.916; 4201.156; 4264.824;   37.716
474.505; 4269.605; 4256.887;   40.256
475.094; 4650.615; 4695.866;   43.269
475.683; 4520.832; 4565.050;   36.499
476.272; 4079.359; 4097.065;   44.542
476.861; 3903.475; 3948.931;   42.297
477.449; 4001.831; 3969.882;   46.878
478.038; 3755.840; 3777.025;   35.156
478.627; 3900.615; 3876.568;   42.514
479.216; 4226.878; 4207.407;   43.937
479.805; 4274.398; 4278.832;   51.393
480.393; 5838.185; 5857.525;   53.239
480.982; 4947.887; 4896.465;   38.955
481.571; 4781.124; 4790.142;   45.436
482.159; 3674.694; 3691.654;   51.007
482.748; 4483.971; 4515.519;   49.695
483.336; 4674.519; 4598.579;   48.280
483.925; 3997.625; 4063.463;   47.166
484.513; 3957.369; 3935.260;   55.404
485.102; 4277.215; 4325.250;   54.238
485.690; 5594.798; 5619.982;   55.748
486.278; 5389.517; 5389.023;   55.934
486.867; 4155.507; 4127.811;   57.106
487.455; 4738.200; 4738.304;   56.979
488.043; 3669.252; 3691.629;   57.564
488.631; 5380.263; 5398.611;   57.432
489.220; 4697.142; 4672.864;   63.646
489.808; 3508.885; 3503.826;   65.449
490.396; 4653.844; 4640.186;   61.977
490.984; 3941.701; 3947.307;   68.834
491.572; 4645.689; 4567.773;   70.775
492.160; 4370.652; 4344.629;   67.564
492.748; 4036.546; 4080.360;   66.808
493.336; 4714.328; 4726.854;   79.747
493.924; 4044.232; 3995.183;   88.688
494.512; 4645.871; 4636.201;   84.120
495.100; 4523.271; 4472.669;   86.250
495.687; 4795.152; 4818.077;  103.074
496.275; 3899.164; 3908.229;  108.717
496.863; 4050.205; 3996.719;  107.035
497.451; 4004.563; 3961.695;  117.993
498.038; 4231.309; 4159.964;  120.116
498.626; 4072.854; 4050.548;  143.059
499.214; 4363.517; 4312.023;  153.434
499.801; 4251.523; 4222.907;  175.121
500.389; 3475.146; 3491.808;  185.617
500.976; 4451.085; 4402.742;  215.789
501.564; 4284.457; 4254.191;  240.321
502.151; 3076.528; 3080.938;  267.007
502.738; 4008.409; 4004.814;  317.961
503.326; 4102.675; 4175.680;  361.216
503.913; 4306.098; 4291.748;  401.433
504.500; 4413.677; 4366.851;  446.492
505.088; 3757.614; 3745.079;  512.063
505.675; 4098.547; 4029.045;  586.387
506.262; 4066.859; 4034.898;  671.021
506.849; 4173.561; 4133.520;  759.062
507.436; 4709.899; 4714.751;  849.788
508.023; 4154.384; 4087.889;  944.288
508.610; 4619.489; 4591.154; 1020.690
509.197; 4461.893; 4434.650; 1089.052
509.784; 4180.759; 4136.048; 1133.776
510.371; 3513.976; 3400.299; 1165.501
510.958; 4258.188; 4246.151; 1251.735
511.545; 4918.516; 4904.551; 1350.248
512.132; 4190.088; 4133.452; 1525.945
512.719; 3738.998; 3719.748; 1834.933
513.305; 3856.250; 3804.688; 1965.349
513.892; 4875.587; 4793.766; 1963.265
514.479; 4289.242; 4278.864; 2046.446
515.066; 4712.884; 4641.123; 2252.803
515.652; 4287.394; 4271.570; 2567.247
516.239; 4564.853; 4548.779; 2636.919
516.825; 3563.353; 3550.545; 2482.304
517.412; 5277.094; 5236.336; 2427.031
517.998; 4106.448; 4096.216; 2540.463
518.585; 4023.978; 3979.938; 2609.007
519.171; 4299.532; 4276.183; 2842.088
519.758; 3640.716; 3618.701; 3090.703
520.344; 4653.659; 4530.048; 3176.076
520.930; 3737.976; 3706.701; 3295.037
521.516; 4475.520; 4433.264; 3500.959
522.103; 4922.019; 4889.261; 3736.704
522.689; 4052.910; 3977.751; 3971.022
523.275; 4766.898; 4692.598; 4213.778
523.861; 4119.477; 4071.236; 4190.361
524.447; 4746.946; 4706.427; 4070.602
525.033; 4805.461; 4744.988; 4088.892
525.619; 3874.239; 3784.238; 4416.851
526.205; 3638.704; 3574.866; 4836.835
526.791; 4082.633; 3997.270; 4885.903
527.377; 3927.545; 3870.507; 4544.907
527.963; 4308.419; 4270.813; 4321.995
528.549; 4396.751; 4413.157; 4473.979
529.135; 3849.498; 3839.364; 4788.663
529.721; 4277.879; 4265.176; 4888.577
530.306; 5758.001; 5692.157; 4775.779
530.892; 4023.425; 4010.379; 4793.906
531.478; 3958.197; 3944.129; 4956.948
532.063; 3776.690; 3717.857; 5136.936
532.649; 5215.709; 5212.601; 5336.867
533.235; 3802.646; 3771.126; 5748.092
533.820; 4853.320; 4818.498; 6456.875
534.406; 4118.926; 4093.316; 6590.167
534.991; 3832.726; 3733.466; 6179.622
535.576; 4158.410; 4062.135; 6098.691
536.162; 5808.218; 5735.876; 6441.234
536.747; 3618.934; 3554.291; 6816.224
537.333; 3864.929; 3828.641; 6889.752
537.918; 4174.837; 4117.000; 7154.280
538.503; 3936.148; 3871.982; 7150.848
539.088; 4396.265; 4380.782; 7253.308
539.673; 4028.921; 3968.285; 7625.180
540.259; 3897.480; 3912.410; 8226.793
540.844; 3432.011; 3344.988; 8745.092
541.429; 5140.031; 5059.347; 8762.553
542.014; 3573.244; 3532.353; 8871.497
542.599; 4393.396; 4319.360; 8886.008
543.184; 3695.899; 3630.535; 9079.139
543.769; 3926.109; 3913.981; 9076.182
544.354; 4032.874; 4012.844; 8354.081
544.938; 4372.283; 4321.204; 8236.809
545.523; 5097.466; 5027.020; 8222.179
546.108; 4200.826; 4054.550; 8114.082
546.693; 4168.494; 4108.587; 8535.912
547.278; 4208.912; 4139.457; 9238.322
547.862; 4194.424; 4117.526; 9034.405
548.447; 4721.856; 4645.891; 7795.011
549.031; 4053.549; 4018.619; 7485.099
549.616; 4363.248; 4261.066; 7626.308
550.201; 3952.568; 3844.341; 7627.909
550.785; 4583.436; 4549.997; 7859.125
551.370; 3691.201; 3665.475; 7990.654
551.954; 4718.596; 4625.444; 8196.468
552.538; 4616.087; 4446.382; 7959.495
553.123; 3954.922; 3906.988; 7964.826
553.707; 4103.843; 4103.584; 8515.957
554.291; 4958.302; 4790.860; 8724.024
554.876; 4687.674; 4614.459; 8524.211
555.460; 4001.305; 3811.887; 8704.456
556.044; 3981.144; 3837.671; 9141.473
556.628; 4273.095; 4167.206; 9250.197
557.212; 4904.544; 4763.270; 9444.237
557.796; 4198.514; 4094.247; 9379.783
558.380; 4527.612; 4369.859; 9353.658
558.964; 4420.270; 4287.047; 9210.310
559.548; 3767.530; 3581.494; 8475.153
560.132; 4192.968; 3969.659; 7954.084
560.716; 3881.433; 3639.371; 7489.529
561.300; 3852.428; 3564.788; 7211.952
561.884; 4744.710; 4539.303; 7141.313
562.467; 4716.423; 4470.924; 7155.386
563.051; 4471.427; 4146.721; 7323.158
563.635; 4443.266; 4171.568; 7709.114
564.219; 4523.703; 4133.181; 7678.855
564.802; 4879.808; 4376.062; 7376.187
565.386; 4701.041; 4231.112; 7054.372
565.969; 5386.257; 4842.510; 6589.196
566.553; 5918.804; 5321.269; 6279.371
567.136; 5469.034; 4831.225; 5967.930
567.720; 4965.226; 4192.718; 5660.703
568.303; 5173.235; 4339.843; 5648.615
568.887; 5129.511; 4284.771; 5618.443
569.470; 5377.234; 4318.074; 5411.875
570.053; 5711.766; 4578.652; 5149.274
570.637; 5188.613; 3843.628; 5122.798
571.220; 6125.300; 4546.856; 4957.369
571.803; 6982.127; 5279.805; 4933.018
572.386; 5749.313; 4051.093; 4840.973
572.969; 5918.405; 4061.503; 4592.886
573.552; 6204.674; 4155.778; 4348.387
574.135; 5981.284; 3762.308; 4002.290
574.718; 6181.179; 3874.809; 3654.773
575.301; 6329.679; 3892.616; 3502.288
575.884; 6478.178; 3910.424; 3349.803
576.467; 7908.776; 4728.718; 3191.403
577.050; 8082.526; 4393.952; 3062.418
577.633; 9429.035; 5242.462; 3214.200
578.216; 8578.530; 4147.896; 3284.889
578.799; 8788.255; 4101.055; 3189.777
579.381;10437.143; 5402.434; 3064.502
579.964; 9499.643; 3852.584; 2888.357
580.547;10619.069; 4300.831; 2905.760
581.129;12007.629; 4986.127; 2966.849
581.712;11770.892; 4396.280; 2887.292
582.294;11785.821; 4247.921; 2771.631
582.877;13369.792; 5456.581; 2711.602
583.459;12649.831; 4171.833; 2577.049
584.042;12761.055; 4103.670; 2454.707
584.624;12745.608; 3804.849; 2305.893
585.206;13083.587; 3320.018; 2189.546
585.789;15232.024; 3974.330; 2112.577
586.371;16906.684; 4489.773; 2153.065
586.953;17885.420; 4581.680; 2197.806
587.536;18885.330; 4976.896; 2105.489
588.118;18214.152; 4125.898; 1963.911
588.700;19435.996; 4946.311; 1843.179
589.282;20033.328; 4478.893; 1813.834
589.864;20587.801; 4248.493; 1777.620
590.446;21196.516; 3476.439; 1733.780
591.028;23695.010; 4296.936; 1676.008
591.610;24581.080; 3482.980; 1631.649
592.192;25755.291; 4292.812; 1632.362
592.774;25054.225; 3808.945; 1569.507
593.356;25480.879; 4004.826; 1524.539
593.937;26266.582; 3923.071; 1569.720
594.519;28207.113; 4728.411; 1569.049
595.101;27508.840; 3603.511; 1545.452
595.683;28955.357; 4024.460; 1607.568
596.264;28922.086; 4157.249; 1615.506
596.846;28963.639; 4067.189; 1667.622
597.427;30293.459; 3835.020; 1670.469
598.009;32407.221; 3882.467; 1640.312
598.591;34787.824; 4617.474; 1541.022
599.172;36010.867; 4121.058; 1598.665
599.753;36072.242; 3645.451; 1619.068
600.335;37530.090; 4919.741; 1548.612
600.916;37067.398; 4172.339; 1607.510
601.498;38442.949; 4437.576; 1745.181
602.079;39065.336; 4193.329; 1801.011
602.660;39365.832; 4176.238; 1834.640
603.241;37722.969; 3399.530; 1787.351
603.823;39786.570; 4002.764; 1684.266
604.404;39911.801; 3710.807; 1654.241
604.985;38645.117; 3984.229; 1758.741
605.566;40104.762; 4719.880; 1697.679
606.147;40822.340; 4109.829; 1526.728
606.728;41945.168; 3695.372; 1484.086
607.309;44077.398; 3965.716; 1421.070
607.890;44588.422; 4032.323; 1369.867
608.471;43441.453; 3903.279; 1277.826
609.051;43480.316; 4298.694; 1180.416
609.632;42750.801; 3833.272; 1075.816
610.213;44043.289; 4153.741; 1053.313
610.794;45104.070; 4082.082;  979.442
611.374;44996.277; 4398.585;  917.414
611.955;44738.152; 3642.363;  819.987
612.536;46132.336; 4413.417;  752.627
613.116;46008.645; 3992.919;  690.799
613.697;44644.008; 3962.100;  674.974
614.277;43232.398; 3816.888;  663.846
614.858;42821.727; 3959.351;  665.898
615.438;42800.457; 4237.457;  660.712
616.019;43773.836; 4979.497;  632.732
616.599;43206.859; 3310.866;  551.759
617.179;44148.750; 3699.276;  512.871
617.760;46158.445; 5615.482;  473.655
618.340;44770.477; 4156.284;  440.004
618.920;46178.199; 5142.653;  429.731
619.500;45799.551; 4011.975;  441.361
620.080;46265.852; 3896.450;  425.202
620.660;45184.609; 3779.800;  408.164
621.241;44766.367; 4069.837;  387.161
621.821;45638.234; 4245.116;  378.017
622.401;45067.055; 4777.775;  379.188
622.980;42074.793; 3650.087;  350.019
623.560;42849.934; 4047.025;  336.446
624.140;41426.340; 4304.531;  336.473
624.720;40374.410; 4378.953;  334.974
625.300;39155.250; 3862.978;  325.717
625.880;38798.027; 4127.372;  308.519
626.459;40940.738; 4221.969;  307.117
627.039;42636.313; 3552.747;  290.890
627.619;47036.047; 5398.881;  286.635
628.198;49271.578; 4859.606;  282.535
628.778;49273.008; 4482.953;  285.474
629.357;45679.188; 3721.441;  284.103
629.937;43324.039; 4032.906;  292.178
630.516;43169.074; 5024.134;  290.749
631.096;42913.309; 3866.481;  285.489
631.675;43413.703; 4991.765;  287.022
632.254;41486.688; 3930.136;  286.038
632.834;43291.898; 4184.821;  276.451
633.413;44919.438; 4980.584;  279.447
633.992;42984.688; 4716.374;  264.508
634.571;42109.711; 4505.208;  271.010
635.151;42515.770; 3803.568;  277.338
635.730;44629.762; 4195.275;  289.305
636.309;46221.098; 4437.972;  285.306
636.888;44913.816; 4598.537;  254.051
637.467;41901.957; 3532.883;  230.324
638.046;43337.758; 5056.565;  253.349
638.625;43186.895; 4880.496;  246.866
639.204;42339.012; 4391.589;  240.825
639.782;42150.027; 4275.155;  261.970
640.361;43537.359; 4976.176;  277.780
640.940;42107.023; 3986.832;  270.101
641.519;41385.184; 4433.488;  248.622
642.097;39528.098; 4559.144;  239.843
642.676;39550.707; 4231.799;  244.264
643.255;41285.969; 4115.455;  234.985
643.833;41562.832; 4528.111;  244.406
644.412;40768.445; 4029.767;  244.927
644.990;40951.008; 4288.422;  249.948
645.569;43107.066; 4470.078;  249.569
646.147;44361.281; 4671.734;  243.290
646.726;43493.492; 4378.390;  249.511
647.304;44128.305; 4081.045;  228.032
647.882;44448.367; 3465.701;  214.552
648.461;42713.328; 4320.357;  214.973
649.039;41630.340; 4589.013;  223.394
649.617;43479.801; 4568.668;  261.415
650.195;43040.813; 4371.324;  298.736
650.773;42642.977; 4013.980;  309.557
651.352;41603.535; 3424.635;  297.978
651.930;41021.199; 3345.291;  289.399
652.508;42448.359; 4580.947;  285.620
653.086;40932.973; 4471.603;  272.241
653.663;40328.184; 3913.259;  265.062
654.241;40698.297; 3653.914;  286.083
654.819;39730.008; 3740.570;  286.404
655.397;39436.422; 3838.226;  291.825
655.975;39798.184; 4056.881;  299.145
656.553;39809.395; 5045.537;  288.866
657.130;37349.254; 3750.193;  304.087
657.708;37429.117; 4448.849;  302.908
658.286;38007.281; 4239.504;  294.629
658.863;39248.641; 4303.160;  293.350
659.441;40430.754; 4352.816;  318.671
660.018;41876.664; 4105.472;  333.692
660.596;43074.578; 3372.127;  335.013
661.173;43195.188; 3977.783;  371.534
661.750;41503.750; 3825.439;  365.155
662.328;42094.711; 4520.095;  349.976
662.905;39760.824; 4031.750;  332.997
663.482;38811.336; 4153.406;  321.717
664.060;40249.699; 3866.062;  314.438
664.637;43801.109; 4557.718;  306.259
665.214;43360.371; 4270.374;  314.580
665.791;43723.785; 4046.029;  334.501
666.368;45225.098; 4028.685;  329.222
666.945;46092.207; 4527.341;  342.143
667.522;45288.371; 3790.996;  370.964
668.099;46596.531; 4106.652;  396.885
668.676;47254.043; 4212.308;  391.706
669.253;46891.504; 5037.964;  369.627
669.830;45344.117; 4820.620;  360.348
670.407;43563.680; 4094.275;  344.769
670.984;43274.590; 4109.931;  322.890
671.560;44184.055; 4560.586;  316.910
672.137;43935.363; 4023.242;  322.531
672.714;45586.477; 4470.898;  318.552
673.290;44712.090; 4363.554;  324.473
673.867;44824.152; 3879.210;  340.594
674.443;43721.762; 3729.865;  319.515
675.020;43780.973; 4351.521;  286.336
675.596;44042.137; 4097.177;  247.557
676.173;45609.047; 3594.833;  227.778
676.749;46646.410; 3166.488;  224.399
677.326;47696.570; 3494.144;  230.520
677.902;46806.086; 3828.800;  241.841
678.478;44175.695; 3597.456;  239.762
679.054;46681.059; 6086.111;  248.583
679.631;45958.969; 4403.767;  237.503
680.207;47416.680; 5235.423;  245.924
680.783;45706.695; 3330.079;  224.845
681.359;48493.656; 4114.734;  209.666
681.935;50457.117; 4252.390;  191.687
682.511;50194.527; 4203.046;  210.008
683.087;49431.141; 4362.702;  213.329
683.663;48071.453; 4008.357;  216.850
684.239;48008.266; 3634.013;  229.471
684.815;49939.078; 4588.669;  248.792
685.390;50753.539; 5264.325;  231.813
685.966;49201.051; 4205.980;  221.234
686.542;47613.762; 3664.636;  214.255
687.118;47277.223; 4321.292;  212.276
687.693;48569.785; 4425.947;  233.096
688.269;48908.750; 4003.603;  246.917
688.844;49637.910; 4418.259;  236.938
689.420;48327.922; 4131.915;  242.059
689.995;47993.984; 5041.570;  245.480
690.571;46823.145; 4952.226;  244.701
691.146;44476.758; 4018.882;  251.922
691.722;44835.121; 4329.538;  284.743
692.297;46497.680; 3970.194;  320.664
692.872;46182.844; 3830.849;  313.885
693.448;45845.555; 3698.505;  290.106
694.023;46806.367; 4209.161;  304.327
694.598;47590.879; 4198.816;  319.648
695.173;46673.840; 3954.472;  323.169
695.748;46176.254; 3453.128;  376.389
696.323;47287.465; 4236.784;  397.610
696.898;46595.426; 4719.439;  430.231
697.473;42781.590; 3440.095;  454.952
698.048;42534.102; 4089.751;  478.973
698.623;41649.863; 3561.407;  477.094
699.198;43600.824; 4175.063;  496.915
699.773;44686.086; 3843.718;  490.236
700.348;46299.996; 3742.374;  519.957
700.922;48870.109; 4277.030;  575.678
701.497;48182.871; 4234.686;  621.399
702.072;48999.484; 4597.341;  664.420
702.646;49117.746; 4588.997;  690.541
703.221;47309.609; 4318.653;  748.862
703.795;45649.070; 3663.308;  774.282
704.370;43370.633; 3039.964;  799.803
704.944;42223.395; 3971.620;  875.824
705.519;42656.703; 4291.276;  902.945
706.093;43602.219; 3779.931;  889.266
706.668;44705.930; 4389.587;  903.487
707.242;45086.340; 4572.243;  881.708
707.816;44704.152; 4035.899;  892.329
708.390;45486.816; 4073.554;  970.250
708.965;44602.078; 4295.210;  984.671
709.539;44805.539; 4033.866; 1026.092
710.113;45665.648; 4135.521; 1067.913
710.687;46082.113; 4533.177; 1166.434
711.261;44621.375; 3765.833; 1190.854
711.835;42653.637; 3734.489; 1197.275
712.409;41223.746; 3419.145; 1308.096
712.983;41012.859; 3403.800; 1461.617
713.557;40882.371; 3466.456; 1611.838
714.131;41980.332; 3981.112; 1554.359
714.704;42622.895; 3760.768; 1520.780
715.278;43827.707; 4125.423; 1575.101
715.852;45837.469; 4521.079; 1689.822
716.425;44840.180; 5096.735; 1829.143
716.999;41150.941; 3431.391; 2008.664
717.573;42608.406; 4361.046; 2000.485
718.146;43567.617; 4987.702; 1914.506
718.720;42630.828; 4233.358; 1818.026
719.293;43171.539; 4355.014; 1734.147
719.867;44706.004; 3831.669; 1716.968
720.440;46359.965; 4798.325; 1918.589
721.013;44643.477; 3845.981; 1975.410
721.587;45276.988; 3472.636; 2073.331
722.160;47555.000; 4573.292; 2357.852
722.733;47035.613; 4164.948; 2657.073
723.306;45072.773; 4096.604; 2703.894
723.880;44359.535; 4244.260; 2549.415
724.453;46068.746; 4814.915; 2414.336
725.026;46405.758; 3909.571; 2298.557
725.599;47863.973; 4235.227; 2168.778
726.172;47648.984; 4374.882; 2106.099
726.745;46924.594; 4278.538; 2253.320
727.318;47551.207; 4563.194; 2404.740
727.891;46807.668; 4276.850; 2680.161
728.463;45906.332; 4229.505; 2838.882
729.036;46071.645; 3757.161; 2755.103
729.609;45838.953; 3724.817; 2731.824
730.182;47663.016; 4470.473; 2855.645
730.754;48588.879; 3111.128; 2946.866
731.327;49388.191; 4353.784; 2840.187
731.900;47589.203; 3433.440; 2647.608
732.472;48516.613; 4109.096; 2473.929
733.045;46215.625; 3983.751; 2445.750
733.617;43366.789; 3381.407; 2511.771
734.190;42419.602; 4327.063; 2581.592
734.762;42307.211; 4124.719; 2710.813
735.334;43003.574; 4136.375; 3005.733
735.907;43165.887; 4077.030; 3154.954
736.479;44831.996; 4675.686; 3171.675
737.051;45342.859; 4344.342; 3217.496
737.623;45378.070; 4452.998; 3246.217
738.195;45297.383; 3758.653; 2985.238
738.768;45687.047; 3243.309; 2727.559
739.340;46049.406; 3915.965; 2666.880
739.912;45553.168; 4524.621; 2769.601
740.484;46246.480; 4286.276; 2731.422
741.056;45898.992; 4036.932; 2963.043
741.628;45477.453; 3719.588; 3361.364
742.199;47944.168; 4753.243; 3641.185
742.771;48464.828; 3585.899; 3932.005
743.343;48302.641; 3760.555; 4319.926
743.915;48322.504; 4289.210; 4706.647
744.487;48330.715; 4446.866; 4874.968
745.058;47756.926; 4369.522; 4616.589
745.630;47339.387; 4455.178; 4253.410
746.201;45286.301; 3864.834; 4056.131
746.773;46223.762; 4326.489; 3772.952
747.344;46471.223; 4043.145; 3642.473
747.916;46406.484; 4192.801; 3752.294
748.487;46182.949; 4515.457; 4106.215
749.059;45817.711; 3592.112; 4457.835
749.630;45527.570; 3772.768; 4366.457
750.201;45173.832; 4062.424; 4600.078
750.773;45249.797; 3751.080; 4658.499
751.344;45572.758; 4126.735; 4609.319
751.915;44713.469; 4046.391; 4526.440
752.486;42985.680; 3753.047; 4536.061
753.057;41634.793; 4161.703; 4383.282
753.628;40091.906; 3771.358; 4296.503
754.199;39359.766; 3937.014; 4383.224
754.770;39258.027; 4304.670; 4653.545
755.341;39707.238; 4586.326; 4831.666
755.912;38705.852; 3993.981; 4831.387
756.483;39575.664; 4446.637; 4735.808
757.054;39629.777; 3869.293; 4685.029
757.625;40262.938; 3628.948; 4994.250
758.195;41010.398; 3497.604; 5051.471
758.766;42692.262; 4129.260; 5317.792
759.337;41785.473; 3423.916; 5646.512
759.907;42167.234; 3456.572; 5404.133
760.478;43607.445; 3820.227; 5090.954
761.048;44561.910; 4370.883; 4871.175
761.619;43031.270; 4274.539; 4589.396
762.189;41420.633; 4029.195; 4171.317
762.760;41011.094; 4531.850; 3872.538
763.330;40797.957; 4403.506; 3832.259
763.900;40603.020; 4172.162; 4150.180
764.471;38813.430; 3653.817; 4529.801
765.041;39271.742; 4621.473; 4715.922
765.611;38361.355; 4302.129; 4681.442
766.181;36704.715; 4007.785; 4717.063
766.751;37175.930; 4068.440; 4710.285
767.321;38152.641; 3645.096; 4450.305
767.891;39622.500; 4140.752; 4274.126
768.461;39784.516; 3966.408; 4215.047
769.031;39082.527; 4119.063; 4173.068
769.601;38864.387; 4663.719; 4174.689
770.171;36881.598; 3379.375; 4229.310
770.741;36652.113; 3923.031; 4352.031
771.311;35389.223; 4359.687; 4336.652
771.880;34225.035; 3706.342; 4300.873
772.450;34388.695; 3729.998; 4387.194
773.020;34334.809; 3441.654; 4220.415
773.589;34881.723; 3721.309; 4075.835
774.159;34700.684; 3805.965; 4105.756
774.729;33932.094; 3782.621; 4114.978
775.298;33439.656; 3778.277; 3693.298
775.867;33705.320; 3785.932; 3343.119
776.437;34874.180; 4079.588; 3062.040
777.006;34874.594; 3434.244; 2927.161
777.576;35286.203; 4317.899; 3046.482
778.145;34468.516; 4267.555; 3230.203
778.714;34900.328; 4007.211; 3253.324
779.283;35902.691; 4285.867; 3129.745
779.853;34655.352; 4049.523; 2983.566
780.422;33641.215; 4019.178; 2929.887
780.991;34135.277; 4325.834; 2863.908
781.560;35734.738; 4683.490; 2948.029
782.129;35485.699; 4208.146; 3074.149
782.698;34849.660; 4681.801; 2893.970
783.267;33745.523; 3794.457; 2721.391
783.836;35355.035; 4200.113; 2659.712
784.404;35311.996; 3570.769; 2622.233
784.973;33891.609; 3114.424; 2600.754
785.542;33314.371; 4043.080; 2528.475
786.111;33128.832; 4693.736; 2404.396
786.679;32150.295; 4274.392; 2365.717
787.248;30808.457; 3443.047; 2498.438
787.817;30888.369; 3802.703; 2645.659
788.385;31146.631; 4547.359; 2709.280
788.954;29484.842; 3478.015; 2620.500
789.522;30324.254; 4392.670; 2625.422
790.090;29380.266; 3528.326; 2743.843
790.659;31629.777; 3823.982; 2635.163
791.227;32531.939; 3888.637; 2495.484
791.795;32580.852; 4177.293; 2413.705
792.364;33372.965; 3594.949; 2345.326
792.932;34604.773; 4216.605; 2350.447
793.500;34848.336; 3858.260; 2429.768
794.068;33788.398; 3427.916; 2513.589
794.636;33355.262; 3702.572; 2664.310
795.204;32661.924; 3295.228; 2721.431
795.772;32535.686; 3651.884; 2802.052
796.340;32296.396; 3756.539; 2847.173
796.908;31100.859; 3289.195; 2997.194
797.476;29935.170; 3509.851; 3151.615
798.044;29004.482; 3250.507; 3110.735
798.612;30434.844; 3958.162; 2931.656
799.180;31445.256; 4086.818; 2785.777
799.747;31701.018; 4008.474; 2899.098
800.315;30651.529; 3435.129; 2955.519
800.883;29791.992; 3162.785; 2948.940
801.450;29711.504; 3940.441; 2965.361
802.018;29827.166; 4183.097; 3070.582
802.585;29954.479; 3985.752; 3156.103
803.153;30342.139; 3678.408; 3199.524
803.720;30620.551; 3694.064; 3168.845
804.287;29834.613; 3920.720; 3248.366
804.855;29359.375; 4450.375; 3406.187
805.422;28109.787; 3871.031; 3430.907
805.989;27875.600; 3599.687; 3453.528
806.556;28899.811; 3635.343; 3612.649
807.124;31890.422; 4369.999; 3736.570
807.691;32318.584; 3546.654; 3770.491
808.258;32342.447; 4007.310; 3705.012
808.825;32508.459; 4518.966; 3828.733
809.392;33204.719; 4664.622; 3986.754
809.959;33100.531; 4210.277; 4410.075
810.526;33465.496; 4871.933; 4774.996
811.093;32316.957; 4452.589; 4754.217
811.659;30319.617; 3920.244; 4661.238
812.226;29366.830; 3952.900; 4672.559
812.793;28905.441; 4135.556; 4822.979
813.360;28182.553; 3920.212; 5189.800
813.926;28976.266; 4139.867; 5310.622
814.493;28766.178; 3501.523; 5414.542
815.060;28912.889; 3204.179; 5548.963
815.626;30128.602; 3510.835; 5452.284
816.193;31788.713; 4119.490; 5339.305
816.759;31755.324; 3683.146; 5544.426
817.325;30863.387; 3265.802; 5706.547
817.892;31441.049; 4356.458; 5623.468
818.458;30885.361; 4214.113; 5586.689
819.024;30987.172; 4563.769; 5647.910
819.591;29007.135; 3965.425; 5762.031
820.157;27267.746; 3501.081; 6284.452
820.723;28144.158; 4153.736; 6906.973
821.289;30682.820; 6094.392; 7086.894
821.855;28713.482; 4335.048; 7054.915
822.421;26907.193; 3823.704; 7112.035
822.987;25766.006; 3493.359; 7256.156
823.553;25725.068; 3910.015; 7538.077
824.119;25695.180; 4447.671; 7594.298
824.685;25470.791; 4588.327; 7613.619
825.251;25151.803; 4401.982; 7644.140
825.816;24638.715; 4882.638; 7720.261
826.382;23604.977; 4369.294; 8014.282
826.948;24139.439; 4403.950; 8281.503
827.513;23546.102; 3895.605; 8289.624
828.079;23377.363; 3576.261; 8587.045
828.645;24053.426; 4168.917; 8821.865
829.210;23905.688; 3531.573; 9054.486
829.776;24938.498; 4259.229; 9054.607
830.341;25259.910; 4372.884; 9415.628
830.906;24313.973; 4558.540; 9932.449
831.472;21664.484; 3631.196;10150.271
832.037;20998.945; 4391.851; 9420.391
832.602;19396.508; 3781.507; 8664.912
833.167;20283.471; 4080.163; 8491.933
833.733;21057.332; 4406.818; 8872.854
834.298;20160.744; 3607.474; 9370.575
834.863;20445.105; 4193.130; 9610.695
835.428;20436.117; 4207.786; 9655.616
835.993;20496.779; 4255.441; 9437.838
836.558;20268.441; 4280.097; 9441.459
837.123;21337.303; 5278.753; 9600.979
837.688;19789.715; 4213.409; 9798.301
838.253;18982.377; 4126.064; 9902.921
838.817;18487.988; 3883.720;10339.742
839.382;19529.602; 4656.376;10548.363
839.947;19237.713; 4115.032;10252.484
840.511;19507.174; 4840.688;10040.005
841.076;17156.938; 3118.343;10099.926
841.641;17344.199; 4214.999;10347.347
842.205;16666.111; 4203.655;10817.368
842.770;17537.822; 4926.311;11435.289
843.334;17021.785; 3974.966;12072.409
843.898;17052.146; 3791.622;12635.431
844.463;17628.258; 4626.278;12537.252
845.027;16100.120; 3865.933;12759.673
845.591;16336.932; 4439.589;12821.993
846.156;15753.594; 3789.245;12520.914
846.720;16334.905; 4383.901;12390.436
847.284;15764.468; 4146.557;12956.456
847.848;15064.579; 4274.212;13240.177
848.412;13790.791; 4046.868;13216.998
848.976;13693.053; 4699.523;13014.619
849.540;14001.865; 5159.179;12355.740
850.104;13698.277; 4709.835;12208.761
850.668;12312.239; 3227.491;12106.882
851.232;12691.251; 3376.147;11862.103
851.796;13611.213; 3985.802;11700.523
852.359;14329.225; 4439.458;12375.944
852.923;14245.736; 4567.114;13087.966
853.487;13753.948; 4417.770;13297.187
854.050;11960.561; 2773.425;13851.207
854.614;13008.072; 3852.081;14854.229
855.177;13311.684; 4208.737;15802.149
855.741;12912.146; 4218.393;16603.570
856.304;12788.558; 4520.048;16359.891
856.868;11617.420; 3557.704;14365.512
857.431;11702.981; 4062.360;13361.333
857.995;11316.993; 3881.016;14130.554
858.558;11433.006; 4193.671;14883.175
859.121;11551.518; 4476.327;15754.195
859.684;11257.029; 4152.983;15995.017
860.247;11175.341; 4082.639;15149.537
860.810;11022.303; 3864.294;14640.358
861.374;12646.165; 5157.950;15551.079
861.937;11253.026; 3541.606;16519.801
862.500;11706.688; 3787.261;16796.521
863.062;11651.150; 3591.917;16538.742
863.625;12192.313; 4180.573;16716.764
864.188;11552.124; 3833.229;17055.084
864.751;11060.937; 3832.885;17197.705
865.314;11232.298; 4093.540;17151.625
865.876;11819.010; 4534.196;17783.547
866.439;11814.472; 4379.852;19283.467
867.002;12286.334; 5062.507;20256.389
867.564;11269.696; 4600.163;20485.410
868.127;10600.308; 4045.819;20789.730
868.689;10829.970; 4180.475;21981.951
869.252;11138.081; 4637.130;23803.771
869.814;10324.644; 3729.786;24974.094
870.377;10907.705; 4236.442;24690.314
870.939;12350.417; 5865.098;23963.436
871.501;10467.329; 4160.753;25167.156
872.063; 9096.391; 3072.409;26995.477
872.626; 9253.053; 3323.065;27443.098
873.188;10086.465; 4151.721;26718.418
873.750; 9715.276; 3970.376;26558.840
874.312; 9277.889; 3832.032;26701.561
874.874;10095.950; 4907.688;27970.582
875.436; 9537.712; 4414.344;29173.402
875.998; 9733.774; 4739.000;30376.623
876.560; 9560.187; 4437.655;32507.344
877.122; 8686.698; 3676.311;34833.066
877.683; 8926.060; 4339.967;36458.285
878.245; 7868.422; 3923.623;37248.207
878.807; 8014.834; 4325.278;36758.027
879.369; 7214.196; 3526.934;35223.551
879.930; 7424.607; 3585.590;33824.969
880.492; 8610.920; 4693.246;34436.492
881.053; 7614.281; 3646.901;37745.313
881.615; 7649.393; 3793.557;41184.633
882.176; 7688.305; 3968.213;42871.555
882.738; 8114.367; 4449.869;41693.074
883.299; 6928.629; 3203.524;40289.895
883.860; 7087.741; 3346.180;39231.215
884.422; 7931.003; 4350.835;38264.039
884.983; 6916.615; 3590.491;37171.859
885.544; 7397.876; 4101.147;35842.379
886.105; 7371.789; 4077.803;34810.000
886.666; 7122.400; 3842.459;34519.020
887.227; 6563.812; 3331.115;33905.641
887.788; 7353.024; 4272.770;34502.965
888.349; 6458.536; 3443.426;34241.785
888.910; 7231.348; 4410.082;33722.203
889.471; 6937.460; 4171.737;32539.625
890.032; 6757.622; 4028.393;31528.346
890.593; 7035.833; 4343.049;32655.068
891.153; 6608.795; 3991.705;33882.289
891.714; 5873.757; 3489.360;33318.711
892.275; 5804.569; 3520.016;31848.930
892.835; 6654.831; 4429.672;30339.752
893.396; 6505.393; 4337.328;30074.973
893.956; 5967.955; 3918.983;30338.393
894.517; 6147.117; 4183.639;30864.113
895.077; 6096.879; 4235.295;29766.734
895.638; 6645.791; 4893.951;26379.557
896.198; 5205.652; 3579.606;24056.277
896.758; 5982.614; 4392.262;22961.898
897.319; 5440.227; 3949.918;21772.020
897.879; 5409.838; 4009.573;20877.539
898.439; 4652.550; 3333.229;19509.461
898.999; 5551.412; 4251.885;17297.582
899.559; 5419.624; 4199.541;14712.002
900.119; 4697.986; 3592.197;12790.224
900.679; 5873.848; 4769.853;11586.744
901.239; 5397.209; 4335.508;10776.465
901.799; 5076.872; 4095.164; 9691.687
902.359; 4627.383; 3620.820; 8725.907
902.919; 4544.745; 3640.475; 8305.728
903.479; 4558.557; 3625.131; 8172.649
904.038; 4383.319; 3439.787; 7913.870
904.598; 3909.581; 3087.443; 7262.291
905.158; 4671.543; 3872.098; 6609.012
905.717; 4823.805; 3925.754; 6236.133
906.277; 4891.817; 4036.410; 5829.054
906.836; 5084.179; 4257.065; 5396.674
907.396; 5014.141; 4280.721; 4964.195
907.955; 5036.752; 4195.377; 4528.917
908.515; 4612.814; 3844.033; 4223.837
909.074; 4669.876; 3904.688; 4023.958
909.633; 4658.738; 3933.344; 4065.379
910.192; 5647.750; 4879.000; 4066.300
910.752; 4623.300; 3836.000; 3971.600
911.311; 4529.950; 3829.000; 3839.600
911.870; 4388.850; 3733.000; 3684.500
912.429; 5289.000; 4522.000; 3635.600
912.988; 5173.900; 4439.000; 3689.800
913.547; 4300.850; 3665.000; 3737.700
914.106; 4806.250; 4118.000; 3740.300
914.665; 4791.900; 4086.000; 3604.600
915.224; 5218.000; 4420.000; 3358.700
915.782; 4471.550; 3749.000; 3188.400
916.341; 5358.400; 4630.000; 3091.400
916.900; 4536.100; 3842.000; 3044.800
917.458; 4332.650; 3646.000; 2888.600
918.017; 4765.850; 4041.000; 2818.900
918.576; 4545.200; 3844.000; 2838.600
919.134; 4075.600; 3296.000; 2880.100
919.693; 4528.700; 3810.000; 2996.300
920.251; 4444.500; 3730.000; 3183.100
920.809; 4183.100; 3478.000; 3247.000
921.368; 4453.000; 3701.000; 3156.600
921.926; 4250.850; 3509.000; 2964.900
922.484; 4673.600; 4010.000; 2846.300
923.042; 4545.050; 3810.000; 2890.400
923.601; 5354.200; 4590.000; 2987.700
924.159; 4939.550; 4172.000; 3049.800
924.717; 4270.450; 3556.000; 3087.000
925.275; 4706.800; 4012.000; 3093.400
925.833; 3906.650; 3174.000; 3182.400
926.391; 4937.200; 4162.000; 3397.900
926.949; 4472.450; 3691.000; 3575.400
927.506; 4771.400; 4103.000; 3713.400
928.064; 4558.650; 3777.000; 3871.300
928.622; 4632.550; 3866.000; 4092.800
929.180; 4172.650; 3448.000; 4499.300
929.737; 4064.550; 3313.000; 4813.200
930.295; 4943.200; 4149.000; 5084.100
930.853; 4364.150; 3612.000; 5185.000
931.410; 4146.000; 3428.000; 5313.100
931.968; 4979.300; 4289.000; 5339.600
932.525; 4674.050; 4008.000; 5399.900
933.082; 4042.750; 3316.000; 5457.500
933.640; 4846.450; 4121.000; 5692.900
934.197; 4555.000; 3753.000; 5821.200
934.754; 4556.450; 3810.000; 5617.900
935.312; 4354.200; 3661.000; 5512.400
935.869; 5381.300; 4593.000; 5582.400
936.426; 4385.500; 3648.000; 5650.100
936.983; 4487.250; 3704.000; 5657.400
937.540; 4114.350; 3380.000; 5564.300
938.097; 4846.550; 4024.000; 5574.000
938.654; 4486.800; 3680.000; 5665.900
939.211; 4828.100; 4017.000; 5931.600
939.768; 4611.600; 3775.000; 6153.600
940.324; 4476.500; 3749.000; 6397.600
940.881; 4298.450; 3571.000; 6454.200
941.438; 5213.100; 4445.000; 6206.900
941.995; 5028.450; 4294.000; 6003.900
942.551; 4130.700; 3385.000; 6228.300
943.108; 4570.050; 3850.000; 6603.500
943.664; 4167.400; 3403.000; 7188.100
944.221; 5638.750; 4794.000; 7579.900
944.777; 4107.750; 3410.000; 7658.100
945.334; 4213.100; 3458.000; 7670.400
945.890; 4638.100; 3830.000; 7525.100
946.446; 4632.300; 3923.000; 7261.500
947.003; 4785.350; 4052.000; 6949.200
947.559; 5401.100; 4598.000; 6773.100
948.115; 5131.150; 4390.000; 6668.400
948.671; 4744.600; 4048.000; 6488.400
949.227; 3983.700; 3255.000; 6236.600
949.783; 3933.600; 3263.000; 6008.900
950.339; 4842.300; 4058.000; 5934.100
950.895; 5101.800; 4358.000; 5933.500
951.451; 4434.600; 3643.000; 6074.700
952.007; 4912.000; 4221.000; 6066.400
952.563; 4462.450; 3731.000; 5884.100
953.118; 4328.200; 3556.000; 5733.800
953.674; 4587.650; 3860.000; 5734.300
954.230; 4615.500; 3829.000; 6039.700
954.785; 4604.200; 3788.000; 6383.500
955.341; 4998.100; 4249.000; 6568.200
955.897; 3953.100; 3263.000; 6488.600
956.452; 4778.300; 4057.000; 6239.200
957.008; 5740.950; 5006.000; 5954.600
957.563; 5191.650; 4383.000; 5816.700
958.118; 4278.700; 3554.000; 5828.200
958.674; 4699.900; 3987.000; 5717.400
959.229; 5248.500; 4500.000; 5506.800
959.784; 4050.450; 3326.000; 5292.200
960.339; 5231.000; 4567.000; 5101.900
960.894; 4977.100; 4254.000; 5093.200
961.449; 4259.150; 3559.000; 5227.900
962.004; 6689.400; 5871.000; 5349.300
962.559; 4286.150; 3556.000; 5514.900
963.114; 3481.650; 2827.000; 5717.300
963.669; 4609.650; 3950.000; 5841.400
964.224; 4387.550; 3697.000; 5805.900
964.779; 4083.500; 3383.000; 5723.400
965.334; 5263.250; 4557.000; 5779.500
965.888; 4330.200; 3623.000; 5948.500
966.443; 5016.400; 4260.000; 6344.200
966.998; 3901.150; 3258.000; 6666.300
967.552; 4532.400; 3851.000; 6710.100
968.107; 4266.750; 3640.000; 6593.500
968.661; 4665.750; 3999.000; 6344.100
969.216; 4226.700; 3593.000; 6062.400
969.770; 4651.900; 4038.000; 5785.500
970.324; 4684.850; 4009.000; 5426.800
970.879; 4902.100; 4247.000; 5016.800
971.433; 4933.300; 4333.000; 4904.500
971.987; 4587.400; 3974.000; 4991.000
972.541; 4716.550; 4010.000; 4978.500
973.095; 5309.050; 4668.000; 4832.000
973.649; 3935.350; 3347.000; 4767.900
974.203; 4098.650; 3486.000; 4881.200
974.757; 4266.500; 3708.000; 4969.500
975.311; 4423.550; 3822.000; 4953.000
975.865; 4489.400; 3895.000; 4884.300
976.419; 4321.250; 3723.000; 4739.800
976.973; 4260.500; 3686.000; 4698.100
977.526; 4963.750; 4377.000; 4631.100
978.080; 3896.400; 3376.000; 4621.600
978.634; 4736.150; 4113.000; 4650.200
979.187; 4657.350; 4137.000; 4669.200
979.741; 5442.450; 4854.000; 4658.000
980.294; 3901.900; 3414.000; 4579.100
980.848; 3449.550; 2939.000; 4452.800
981.401; 4144.450; 3632.000; 4271.900
981.955; 4407.200; 3940.000; 4087.800
982.508; 3712.650; 3172.000; 3973.900
983.061; 4884.450; 4384.000; 3928.600
983.615; 4035.950; 3473.000; 3851.200
984.168; 3870.700; 3349.000; 3734.800
984.721; 4634.700; 4191.000; 3628.300
985.274; 4546.100; 4087.000; 3564.300
985.827; 4338.800; 3823.000; 3558.100
986.380; 3587.350; 3166.000; 3559.900
986.933; 4554.400; 4046.000; 3688.700
987.486; 4564.050; 4111.000; 3778.500
988.039; 4536.200; 4083.000; 3559.900
988.591; 4835.800; 4361.000; 3219.300
989.144; 3785.300; 3366.000; 2902.900
989.697; 3987.100; 3520.000; 2722.600
990.250; 4677.700; 4261.000; 2618.000
990.802; 3975.200; 3589.000; 2523.900
991.355; 5543.250; 5030.000; 2436.500
991.907; 4797.625; 4323.500; 2412.200
992.460; 4052.000; 3617.000; 2387.900
993.012; 4079.850; 3668.000; 2365.800
993.565; 3811.850; 3432.000; 2311.100
994.117; 5431.950; 5024.000; 2308.700
994.669; 3813.950; 3413.000; 2249.300
995.221; 4475.250; 4098.000; 2158.100
995.774; 4387.700; 4019.000; 2085.600
996.326; 4109.900; 3727.000; 2068.100
996.878; 4814.600; 4501.000; 1975.300
997.430; 3890.900; 3556.000; 1929.500
997.982; 4254.950; 3876.000; 1861.900
998.534; 4222.400; 3923.000; 1830.200
999.086; 4190.050; 3791.000; 1823.200
999.638; 3661.600; 3274.000; 1815.000
1000.190; 4002.400; 3607.000; 1796.600
1000.741; 4276.150; 3881.000; 1738.800
1001.293; 3879.400; 3563.000; 1666.200
1001.845; 3887.350; 3473.000; 1566.500
1002.396; 4302.650; 3970.000; 1471.900
1002.948; 4281.850; 3993.000; 1398.000
1003.500; 4202.200; 3836.000; 1356.500
1004.051; 5539.850; 5191.000; 1294.200
1004.603; 4754.550; 4414.000; 1190.000
1005.154; 3528.050; 3256.000; 1063.900
1005.705; 4313.900; 4018.000;  968.300
1006.257; 4240.600; 3899.000;  889.800
1006.808; 4110.850; 3803.000;  801.500
1007.359; 4715.750; 4392.000;  716.400
1007.910; 3896.500; 3589.000;  639.100
1008.461; 4520.900; 4196.000;  561.600
1009.013; 3515.000; 3309.000;  500.400
1009.564; 4930.550; 4649.000;  476.100
1010.115; 3582.200; 3257.000;  431.600
1010.665; 3641.950; 3424.000;  409.300
1011.216; 4086.600; 3845.000;  399.700
1011.767; 4256.900; 4044.000;  388.100
1012.318; 4446.450; 4250.000;  381.400
1012.869; 4130.250; 3860.000;  375.400
1013.419; 3629.450; 3427.000;  357.600
1013.970; 4104.300; 3860.000;  358.300
1014.521; 3737.550; 3485.000;  344.100
1015.071; 4132.100; 3892.000;  322.800
1015.622; 3851.600; 3631.000;  320.600
1016.172; 3628.750; 3383.000;  301.700
1016.723; 3745.450; 3489.000;  289.800
1017.273; 3693.600; 3526.000;  287.600
1017.823; 3995.800; 3811.000;  278.700
1018.374; 3750.900; 3551.000;  274.400
1018.924; 4470.950; 4161.000;  283.200
1019.474; 4413.500; 4104.000;  278.500
1020.024; 4021.150; 3824.000;  274.700
1020.574; 4511.000; 4301.000;  272.700
1021.124; 4180.400; 3987.000;  278.400
1021.674; 3407.900; 3150.000;  269.200
1022.224; 4431.150; 4195.000;  267.800
1022.774; 4122.700; 3879.000;  258.100
1023.324; 4749.600; 4534.000;  260.000
1023.874; 5614.050; 5351.000;  260.700
1024.423; 3765.350; 3520.000;  252.700
1024.973; 3688.900; 3495.000;  234.700
1025.523; 3813.400; 3573.000;  226.500
1026.072; 3743.100; 3508.000;  225.500
1026.622; 4168.050; 4023.000;  210.100
1027.172; 4456.600; 4313.000;  213.000
1027.721; 3685.150; 3489.000;  207.700
1028.270; 4173.550; 3992.000;  205.400
1028.820; 3993.200; 3787.000;  201.000
1029.369; 3800.950; 3643.000;  201.000
1029.918; 3997.200; 3746.000;  198.400
1030.468; 3473.900; 3248.000;  199.200
1031.017; 3963.200; 3709.000;  192.600
1031.566; 3774.550; 3525.000;  197.400
1032.115; 4354.800; 4097.000;  188.300
1032.664; 3730.000; 3518.000;  193.700
1033.213; 4629.350; 4389.000;  191.900
1033.762; 3960.800; 3768.000;  184.500
1034.311; 4229.400; 3988.000;  194.300
1034.860; 4336.350; 4078.000;  192.300
1035.408; 4583.850; 4398.000;  182.600
1035.957; 4517.450; 4358.000;  173.900
1036.506; 3248.100; 3109.000;  185.200
1037.055; 5369.450; 5123.000;  182.500
1037.603; 4183.100; 3956.000;  167.600
1038.152; 3269.400; 3090.000;  168.200
1038.700; 3625.700; 3438.000;  169.600
1039.249; 4250.350; 4034.000;  164.300
1039.797; 3979.900; 3767.000;  169.600
1040.345; 4428.850; 4233.000;  167.100
1040.894; 3936.050; 3780.000;  164.400
1041.442; 3994.150; 3804.000;  158.300
1041.990; 3502.900; 3284.000;  160.000
1042.538; 3312.650; 3161.000;  156.800
1043.087; 3507.100; 3312.000;  146.600
1043.635; 4259.000; 4061.000;  162.400
1044.183; 3687.350; 3571.000;  156.300
1044.731; 3593.550; 3433.000;  158.100
1045.279; 4280.350; 4006.000;  154.500
1045.827; 5758.950; 5551.000;  146.200
1046.374; 3174.450; 2964.000;  154.000
1046.922; 3696.050; 3605.000;  149.000
1047.470; 4392.500; 4204.000;  154.900
1048.018; 4139.500; 3932.000;  148.400
1048.565; 4546.500; 4297.000;  146.300
1049.113; 3445.650; 3243.000;  156.100
1049.660; 3935.200; 3728.000;  154.300
1050.208; 4266.250; 4077.000;  149.400
1050.755; 3811.000; 3551.000;  157.500
1051.303; 4362.100; 4216.000;  157.700
1051.850; 3991.850; 3803.000;  152.800
1052.397; 2933.100; 2721.000;  146.300
1052.945; 3905.450; 3744.000;  149.500
1053.492; 4752.000; 4593.000;  149.300
1054.039; 4609.200; 4427.000;  163.100
1054.586; 3494.150; 3319.000;  150.400
1055.133; 4430.200; 4270.000;  153.500
1055.680; 4079.650; 3919.000;  155.600
1056.227; 3386.450; 3220.000;  148.700
1056.774; 5113.200; 4903.000;  151.500
1057.321; 3259.600; 3117.000;  143.700
1057.868; 4112.650; 3906.000;  145.300
1058.415; 4150.850; 4007.000;  153.500
1058.961; 4312.450; 4121.000;  149.900
1059.508; 4066.100; 3853.000;  147.300
1060.055; 3693.800; 3518.000;  151.000
1060.601; 3911.600; 3742.000;  148.700
1061.148; 3968.300; 3805.000;  153.800
1061.694; 3751.950; 3586.000;  150.500
1062.241; 3778.900; 3590.000;  149.100
1062.787; 4242.500; 4050.000;  153.000
1063.334; 5161.650; 4934.000;  153.200
1063.880; 4299.750; 4100.000;  148.400
1064.426; 4527.350; 4312.000;  149.200
1064.972; 3779.300; 3646.000;  156.400
1065.518; 3598.600; 3432.000;  144.700
1066.065; 4006.450; 3868.000;  139.400
1066.611; 3822.350; 3641.000;  139.300
1067.157; 4083.250; 4017.000;  138.400
1067.703; 4275.700; 4134.000;  142.700
1068.249; 3783.250; 3589.000;  136.700
1068.794; 3996.550; 3879.000;  139.400
1069.340; 3645.600; 3464.000;  142.700
1069.886; 3785.950; 3628.000;  135.600
1070.432; 3411.600; 3246.000;  133.400
1070.977; 3844.700; 3718.000;  138.200
1071.523; 3567.800; 3385.000;  132.400
1072.068; 3652.900; 3519.000;  132.700
1072.614; 3308.800; 3125.000;  127.000
1073.160; 4438.350; 4282.000;  131.300
1073.705; 3665.400; 3494.000;  135.700
1074.250; 3565.050; 3346.000;  133.000
1074.796; 4200.950; 4041.000;  138.000
1075.341; 4237.150; 4082.000;  137.300
1075.886; 3761.100; 3560.000;  134.300
1076.431; 4205.500; 4028.000;  138.200
1076.976; 4116.700; 3970.000;  132.200
1077.521; 3685.000; 3626.000;  138.900
1078.067; 3707.850; 3526.000;  128.600
1078.612; 4287.500; 4149.000;  138.900
1079.156; 3852.700; 3659.000;  128.900
1079.701; 4475.400; 4292.000;  129.700
1080.246; 4504.450; 4366.000;  128.600
1080.791; 4055.250; 3908.000;  122.600
1081.336; 4235.250; 4072.000;  122.000
1081.880; 4192.850; 4039.000;  123.900
1082.425; 3655.400; 3467.000;  120.600
1082.970; 4626.850; 4476.000;  124.500
1083.514; 3839.600; 3647.000;  112.000
1084.059; 3750.650; 3607.000;  120.700
1084.603; 3650.750; 3485.000;  116.000
1085.147; 4167.300; 3993.000;  116.300
1085.692; 4657.850; 4527.000;  108.200
1086.236; 3212.700; 3093.000;  114.600
1086.780; 4898.450; 4729.000;  118.900
1087.325; 4220.100; 4146.000;  120.400
1087.869; 3969.600; 3788.000;  110.500
1088.413; 4554.400; 4375.000;  114.000
1088.957; 3428.900; 3298.000;  114.300
1089.501; 5009.950; 4820.000;  114.600
1090.045; 4720.600; 4580.000;  114.200
1090.589; 3657.450; 3537.000;  105.500
1091.133; 4349.850; 4119.000;  111.800
1091.676; 3752.700; 3600.000;  110.900
1092.220; 3880.100; 3661.000;  110.100
1092.764; 4594.800; 4413.000;  108.100
1093.307; 4335.400; 4230.000;  109.900
1093.851; 3572.750; 3439.000;  107.500
1094.395; 4433.300; 4305.000;   96.200
1094.938; 4092.850; 3970.000;   99.300
1095.482; 3597.900; 3534.000;   97.700
1096.025; 4620.000; 4414.000;   84.900
1096.568; 5028.950; 4867.000;   88.500
1097.112; 3215.950; 3088.000;   95.700
1097.655; 3832.250; 3686.000;   97.300
1098.198; 3852.300; 3670.000;   92.600
1098.741; 3999.400; 3878.000;   91.800
1099.285; 4252.300; 4055.000;   88.000
1099.828; 2798.050; 2659.000;   91.700
1100.371; 3940.300; 3824.000;   89.900
1100.914; 4462.550; 4302.000;   91.500
1101.457; 4411.500; 4198.000;   88.100
1101.999; 3730.350; 3617.000;   86.400
1102.542; 4102.800; 4009.000;   90.800
1103.085; 4289.550; 4097.000;   95.400
1103.628; 5007.950; 4902.000;   97.700
1104.170; 3771.400; 3646.000;   84.000
1104.713; 4182.700; 4060.000;   93.900
1105.256; 3588.750; 3444.000;   93.000
1105.798; 3222.100; 3080.000;   85.600
1106.341; 4771.950; 4574.000;   87.100
1106.883; 3360.700; 3214.000;   85.200
1107.425; 4371.900; 4231.000;   85.000
1107.968; 4031.850; 3945.000;   84.300
1108.510; 4457.550; 4279.000;   88.200
1109.052; 4030.000; 3888.000;   86.600
1109.594; 3592.700; 3518.000;   79.400
1110.136; 4192.600; 4039.000;   81.700
1110.679; 4082.600; 3940.000;   75.500
1111.221; 3958.600; 3787.000;   88.500
1111.763; 3591.300; 3459.000;   87.700
1112.304; 3521.550; 3440.000;   89.700
1112.846; 4350.600; 4247.000;   81.900
1113.388; 6265.200; 6035.000;   86.400
1113.930; 4538.900; 4407.000;   84.700
1114.472; 3948.300; 3905.000;   78.900
1115.013; 3570.100; 3441.000;   78.100
1115.555; 3837.150; 3729.000;   84.900
1116.097; 3742.350; 3669.000;   79.200
1116.638; 4481.100; 4355.000;   83.700
1117.180; 4328.650; 4188.000;   85.500
1117.721; 3734.250; 3616.000;   78.800
1118.262; 4434.300; 4212.000;   77.400
1118.804; 4158.200; 4020.000;   81.400
1119.345; 3785.950; 3609.000;   77.800
1119.886; 4623.850; 4497.000;   81.200
1120.427; 3832.700; 3747.000;   77.200
1120.969; 3925.850; 3845.000;   75.200
1121.510; 3680.000; 3557.000;   80.900
1122.051; 4740.100; 4606.000;   77.300
1122.592; 4307.850; 4214.000;   73.300
1123.133; 3552.250; 3499.000;   90.100
1123.673; 4659.050; 4514.000;   75.000
1124.214; 4012.000; 3782.000;   80.600
1124.755; 4207.450; 4090.000;   78.000
1125.296; 4068.450; 3938.000;   77.500
1125.836; 4530.200; 4385.000;   80.400
1126.377; 3923.850; 3792.000;   75.600
1126.918; 4059.450; 3944.000;   78.900
1127.458; 4088.000; 3928.000;   78.000
1127.999; 4298.100; 4150.000;   76.100
1128.539; 4563.750; 4372.000;   81.400
1129.079; 4172.850; 4003.000;   77.400
1129.620; 3648.350; 3583.000;   68.000
1130.160; 3534.150; 3425.000;   77.500
1130.700; 4199.900; 4054.000;   76.300
1131.240; 4220.950; 4087.000;   66.800
1131.781; 4090.700; 3951.000;   70.600
1132.321; 3944.150; 3893.000;   77.200
1132.861; 3672.150; 3562.000;   70.400
1133.401; 3921.000; 3742.000;   68.700
1133.941; 4113.750; 3959.000;   68.500
1134.481; 3968.250; 3801.000;   75.900
1135.020; 3995.400; 3872.000;   66.600
1135.560; 4429.500; 4330.000;   68.100
1136.100; 3263.100; 3174.000;   64.900
1136.640; 3354.650; 3259.000;   72.500
1137.179; 3479.450; 3350.000;   69.700
1137.719; 3960.350; 3813.000;   68.400
1138.258; 3857.750; 3720.000;   67.000
1138.798; 4344.850; 4176.000;   69.600
1139.337; 3151.750; 3039.000;   64.000
1139.877; 4211.000; 4088.000;   64.500
1140.416; 5795.650; 5686.000;   74.900
1140.955; 3481.900; 3385.000;   67.200
1141.494; 4455.000; 4307.000;   69.900
1142.034; 3854.050; 3743.000;   59.100
1142.573; 4255.800; 4119.000;   65.900
1143.112; 3633.150; 3522.000;   70.600
1143.651; 3530.600; 3460.000;   67.100
1144.190; 4583.400; 4441.000;   56.700
1144.729; 3982.750; 3927.000;   61.800
1145.267; 3822.950; 3655.000;   62.500
1145.806; 4200.650; 4052.000;   68.500
1146.345; 4214.850; 4113.000;   58.300
1146.884; 4128.050; 4052.000;   63.100
1147.422; 3488.800; 3387.000;   54.800
1147.961; 4680.300; 4585.000;   67.600
1148.500; 4430.000; 4261.000;   64.700
1149.038; 4206.500; 4114.000;   61.000
1149.577; 4616.100; 4457.000;   65.100
1150.115; 2950.750; 2801.000;   58.100
1150.653; 4014.750; 3880.000;   60.500
1151.192; 3654.350; 3604.000;   56.600
1151.730; 4335.700; 4194.000;   62.300
1152.268; 3871.650; 3780.000;   55.500
1152.806; 3792.300; 3716.000;   58.200
1153.344; 3781.050; 3681.000;   55.000
1153.882; 3922.350; 3899.000;   64.200
1154.421; 3064.650; 2988.000;   60.300
1154.958; 3947.100; 3887.000;   58.100
1155.496; 4258.200; 4161.000;   55.800
1156.034; 4798.950; 4640.000;   61.000
1156.572; 4417.250; 4243.000;   56.200
1157.110; 3090.300; 2949.000;   53.200
1157.647; 4490.900; 4327.000;   57.400
1158.185; 3769.450; 3664.000;   55.500
1158.723; 3368.650; 3265.000;   58.000
1159.260; 4639.900; 4469.000;   53.700
1159.798; 4378.700; 4286.000;   51.700
1160.335; 4174.900; 4055.000;   59.600

