gmr_right
Integration time [ms]:   3.882
Averaging Nr. [scans]: 1000
Smoothing Nr. [pixels]: 0
Data measured with spectrometer [name]: 7414430SP
Wave   ;Sample   ;Dark     ;Reference
[nm]   ;[counts] ;[counts] ;[counts] 

288.544;  126.409;   10.292;  793.890
289.143;  130.277;    4.564;  681.602
289.742;  130.784;    6.144;  828.814
290.341;  117.859;    4.396;  789.841
290.940;  108.042;    0.938;  730.702
291.538;  110.088;   -0.684;  881.108
292.137;  108.883;   -2.845;  792.581
292.736;  112.303;   -0.144;  975.101
293.335;  107.906;   -6.352;  735.086
293.934;  108.796;   -7.642;  781.677
294.532;  109.273;   -4.992; 1031.958
295.131;   95.471;   -5.478;  834.394
295.730;   95.029;   -6.549;  809.588
296.328;   94.165;   -9.558;  783.442
296.927;   94.121;   -8.118;  779.652
297.525;   94.926;   -6.908;  781.236
298.124;   84.711;   -9.195;  654.009
298.722;   90.578;   -8.198;  761.933
299.321;   88.837;   -8.817;  708.597
299.919;   85.979;   -7.716;  751.918
300.518;   81.903;  -10.745;  689.338
301.116;   84.526;   -9.647;  691.381
301.715;   84.733;  -10.828;  730.222
302.313;   84.179;   -6.087;  704.943
302.911;   78.203;   -6.824;  733.830
303.509;   84.559;   -8.807;  925.627
304.108;   82.250;   -8.198;  760.383
304.706;   81.327;   -6.218;  801.664
305.304;   75.696;   -7.185;  796.707
305.902;   82.114;   -8.568;  784.484
306.500;   76.900;   -7.737;  728.200
307.098;   76.194;   -6.026;  746.560
307.696;   73.578;   -7.176;  780.432
308.294;   74.863;   -8.656;  731.359
308.892;   77.605;   -6.838;  759.769
309.490;   72.079;   -2.596;  712.161
310.088;   70.183;   -4.485;  788.444
310.686;   76.512;   -3.907;  821.749
311.284;   71.841;   -2.806;  766.040
311.882;   69.266;   -2.845;  731.225
312.480;   65.732;   -3.274;  697.167
313.078;   67.865;   -3.645;  808.331
313.675;   70.187;   -4.997;  691.600
314.273;   64.419;   -0.894;  797.837
314.871;   62.971;   -2.854;  589.829
315.468;   62.039;   -3.644;  652.090
316.066;   64.852;   -3.947;  694.427
316.664;   58.209;   -1.824;  656.351
317.261;   63.037;    1.565;  910.128
317.859;   57.482;   -3.955;  768.735
318.456;   59.283;   -2.886;  830.096
319.054;   54.987;   -0.995;  787.828
319.651;   54.240;   -1.765;  759.928
320.249;   53.726;   -3.685;  810.188
320.846;   51.817;   -3.736;  714.286
321.443;   49.760;   -2.065;  832.135
322.041;   46.749;   -5.635;  812.315
322.638;   45.582;   -5.985;  701.456
323.235;   48.138;   -6.677;  665.683
323.833;   45.252;   -3.497;  740.354
324.430;   40.338;   -6.756;  615.900
325.027;   43.260;   -7.647;  876.855
325.624;   43.855;   -7.598;  644.532
326.221;   39.736;   -5.848;  689.717
326.818;   40.313;   -5.777;  818.332
327.415;   42.639;   -8.769;  748.828
328.012;   42.174;   -6.299;  690.585
328.609;   40.898;   -6.639;  731.389
329.206;   38.490;   -6.358;  778.621
329.803;   37.546;   -8.698;  737.841
330.400;   39.705;   -8.379;  704.260
330.997;   40.720;   -6.178;  817.147
331.594;   37.459;   -5.646;  788.185
332.191;   42.421;   -6.928;  728.722
332.787;   43.338;   -6.057;  844.463
333.384;   41.020;   -6.445;  763.093
333.981;   38.972;   -8.002;  815.687
334.578;   40.876;   -8.443;  708.378
335.174;   43.417;   -6.053;  731.469
335.771;   43.196;   -5.791;  836.456
336.367;   38.931;   -6.570;  710.631
336.964;   42.623;   -6.741;  793.266
337.561;   41.748;   -5.710;  731.112
338.157;   38.613;   -3.928;  911.916
338.754;   34.540;   -5.577;  796.589
339.350;   34.516;   -9.667;  722.493
339.946;   38.646;   -5.269;  773.135
340.543;   30.090;   -4.485;  846.136
341.139;   23.817;   -7.584;  720.836
341.735;   23.150;   -8.553;  772.593
342.332;   22.776;   -4.984;  691.472
342.928;   23.234;   -3.475;  795.394
343.524;   17.543;   -6.653;  761.684
344.120;   14.896;   -7.173;  738.562
344.716;   18.780;   -4.385;  723.717
345.313;   16.252;   -3.565;  795.342
345.909;   11.460;   -7.495;  627.336
346.505;   13.521;   -8.276;  740.247
347.101;   15.134;   -5.697;  827.864
347.697;   14.501;   -4.767;  785.398
348.293;    9.317;   -7.226;  627.244
348.889;   10.919;   -7.547;  745.914
349.485;   10.658;   -9.147;  688.205
350.081;   11.227;   -6.568;  772.592
350.676;    6.049;   -6.516;  691.606
351.272;   11.136;   -7.378;  809.530
351.868;   11.946;   -6.759;  780.497
352.464;    8.628;   -4.798;  723.932
353.059;    4.265;   -7.977;  646.017
353.655;    8.362;   -8.769;  777.063
354.251;    9.662;   -5.920;  759.845
354.846;    3.559;   -7.647;  740.646
355.442;    0.731;   -6.956;  753.071
356.038;    3.583;   -9.928;  751.708
356.633;    3.380;   -7.698;  728.594
357.229;    1.654;   -6.307;  724.757
357.824;   -0.079;   -7.647;  703.600
358.420;   -0.582;  -10.047;  679.726
359.015;    0.469;   -7.458;  695.357
359.610;    2.043;   -5.748;  763.920
360.206;   -5.650;   -9.346;  603.240
360.801;   -1.637;  -11.268;  646.503
361.396;    0.308;   -8.789;  725.975
361.992;   -3.748;   -6.347;  668.220
362.587;   -7.047;   -6.476;  670.160
363.182;   -4.779;   -9.457;  689.631
363.777;   -3.031;   -7.147;  738.242
364.372;   -3.024;   -5.507;  737.314
364.967;   -8.238;   -6.386;  680.744
365.563;   -2.884;   -7.858;  815.567
366.158;   -5.726;   -8.517;  685.161
366.753;   -5.455;   -8.728;  649.263
367.348;   -7.154;   -7.677;  746.056
367.942;   -6.697;  -10.387;  697.298
368.537;   -8.089;   -7.187;  754.245
369.132;   -7.738;   -8.587;  703.428
369.727;  -12.244;   -8.606;  638.079
370.322;  -10.064;  -10.426;  580.186
370.917;   -9.938;   -5.776;  710.646
371.511;   -7.173;   -6.007;  861.834
372.106;  -10.521;   -6.686;  776.964
372.701;  -14.104;   -9.335;  585.988
373.296;   -6.832;   -6.777;  863.135
373.890;  -12.951;   -7.546;  647.840
374.485;  -15.106;   -8.755;  691.199
375.079;  -10.600;   -9.797;  738.685
375.674;   -8.917;   -6.327;  812.970
376.268;  -13.626;   -9.046;  691.759
376.863;  -19.479;   -7.993;  580.327
377.457;  -13.103;   -9.206;  662.490
378.052;  -14.450;   -5.345;  764.884
378.646;  -15.331;   -5.605;  741.167
379.240;  -16.511;   -6.825;  721.176
379.835;  -15.062;  -10.476;  636.978
380.429;  -16.286;   -8.676;  562.557
381.023;  -15.669;   -4.945;  779.205
381.617;  -19.524;   -8.094;  680.106
382.212;  -15.562;  -10.646;  685.303
382.806;  -14.110;   -8.136;  760.690
383.400;  -18.607;   -7.855;  672.281
383.994;  -19.789;   -8.125;  664.870
384.588;  -15.183;   -7.637;  697.701
385.182;  -14.022;   -7.458;  726.624
385.776;  -16.032;   -6.277;  706.875
386.370;  -18.541;   -7.485;  681.968
386.964;  -17.326;   -9.416;  684.155
387.558;  -15.191;   -8.518;  598.360
388.152;  -18.111;   -7.096;  681.959
388.745;  -17.371;   -7.656;  814.707
389.339;  -15.143;   -8.927;  747.642
389.933;  -14.088;   -9.538;  695.370
390.527;  -15.177;   -5.857;  859.029
391.120;  -22.102;   -9.455;  595.318
391.714;  -18.269;   -9.746;  711.633
392.308;  -15.658;   -7.857;  780.253
392.901;  -19.750;   -9.106;  642.460
393.495;  -21.514;  -10.365;  595.414
394.089;  -18.696;   -9.696;  760.452
394.682;  -19.193;   -7.016;  697.188
395.275;  -20.040;   -8.466;  719.927
395.869;  -21.910;   -8.985;  667.314
396.462;  -19.585;  -11.496;  616.609
397.056;  -14.862;   -7.838;  776.621
397.649;  -20.145;   -6.895;  731.575
398.242;  -17.694;   -5.017;  712.645
398.836;  -16.337;   -8.787;  766.408
399.429;  -16.548;   -8.967;  631.041
400.022;  -21.746;   -8.815;  665.902
400.615;  -18.307;   -6.276;  805.609
401.208;  -16.215;   -8.407;  691.451
401.802;  -18.449;   -7.296;  699.329
402.395;  -19.661;   -7.585;  683.502
402.988;  -21.215;   -8.015;  696.627
403.581;  -17.326;   -9.577;  646.878
404.174;  -14.860;   -7.588;  686.568
404.767;  -17.199;   -7.906;  638.583
405.360;  -20.689;   -7.875;  621.445
405.953;  -14.272;   -8.127;  759.034
406.545;  -13.597;   -7.198;  725.342
407.138;  -18.521;   -8.916;  618.350
407.731;  -17.065;   -9.767;  613.303
408.324;  -12.982;  -10.659;  660.554
408.917;  -13.975;   -8.068;  681.864
409.509;  -16.145;   -9.837;  740.396
410.102;  -18.442;   -8.146;  643.948
410.695;  -12.491;   -7.969;  665.758
411.287;  -12.666;   -8.579;  599.821
411.880;  -13.563;   -6.968;  585.421
412.472;  -16.893;   -9.487;  613.092
413.065;  -13.930;  -10.338;  629.408
413.657;  -11.084;   -9.169;  576.678
414.250;  -11.503;  -10.119;  646.681
414.842;  -13.861;   -9.938;  676.353
415.434;  -11.039;  -10.409;  570.463
416.027;   -6.844;   -9.591;  652.196
416.619;   -9.108;   -7.379;  713.400
417.211;   -9.785;   -9.159;  599.352
417.804;   -5.273;   -9.191;  628.499
418.396;   -8.882;   -8.159;  607.643
418.988;   -7.530;   -6.960;  659.238
419.580;  -11.257;  -11.389;  568.276
420.172;   -8.900;  -13.460;  536.196
420.764;   -2.829;  -10.701;  672.482
421.356;   -5.021;   -8.961;  636.898
421.948;   -6.154;   -9.770;  677.661
422.540;   -1.126;   -8.832;  680.027
423.132;   -1.135;   -8.153;  600.641
423.724;   -4.863;   -8.481;  561.267
424.316;   -3.151;   -9.261;  621.345
424.908;    1.174;   -9.643;  591.517
425.500;    1.852;   -8.663;  647.978
426.092;    2.480;   -8.503;  648.268
426.683;    0.056;  -10.522;  684.836
427.275;    4.521;  -11.734;  641.471
427.867;    4.694;  -10.264;  668.948
428.458;    6.459;   -7.644;  732.344
429.050;    4.079;   -7.853;  680.749
429.642;    6.875;   -8.904;  743.124
430.233;    7.708;  -10.795;  569.356
430.825;    9.075;   -7.665;  724.809
431.416;    5.211;   -8.843;  698.241
432.008;   10.142;   -9.885;  651.723
432.599;   11.217;   -9.966;  656.073
433.190;    7.041;   -9.164;  637.670
433.782;    6.398;   -8.584;  590.395
434.373;   14.710;   -8.296;  884.765
434.964;   12.956;   -9.896;  602.920
435.556;   10.853;   -8.255;  634.537
436.147;   12.832;   -8.075;  758.490
436.738;   13.258;   -9.716;  701.099
437.329;   19.337;   -7.318;  721.723
437.920;   11.883;   -6.694;  666.688
438.511;   10.562;   -9.644;  564.526
439.103;   18.486;   -9.427;  623.998
439.694;   20.629;  -10.748;  681.583
440.285;   21.430;   -7.997;  764.432
440.876;   19.532;  -10.046;  845.738
441.466;   18.903;  -13.467;  575.162
442.057;   24.914;   -9.329;  665.814
442.648;   22.118;   -7.707;  746.255
443.239;   19.980;   -9.017;  620.477
443.830;   26.176;  -10.279;  704.958
444.421;   28.567;  -12.630;  655.474
445.011;   24.374;   -8.697;  693.619
445.602;   24.051;   -7.787;  743.126
446.193;   26.208;  -13.329;  488.117
446.783;   30.771;   -9.171;  640.397
447.374;   26.583;   -7.457;  692.759
447.964;   25.919;   -9.277;  713.770
448.555;   35.913;   -9.041;  822.742
449.145;   32.105;   -8.969;  662.853
449.736;   32.147;   -6.809;  803.179
450.326;   31.930;   -7.229;  713.626
450.917;   37.234;  -11.391;  675.324
451.507;   37.329;   -9.501;  600.661
452.097;   38.133;   -8.460;  746.267
452.688;   37.981;  -10.080;  742.160
453.278;   38.362;  -12.861;  566.840
453.868;   43.322;   -8.372;  793.550
454.458;   40.051;   -8.131;  651.141
455.048;   40.948;   -8.520;  711.783
455.639;   42.603;  -13.632;  567.096
456.229;   47.160;  -10.143;  710.694
456.819;   48.512;   -9.163;  751.158
457.409;   48.786;   -8.652;  773.993
457.999;   51.702;   -9.933;  737.505
458.589;   51.902;  -10.363;  686.606
459.179;   50.950;  -10.633;  717.658
459.769;   48.749;  -12.442;  627.099
460.358;   54.668;   -9.844;  797.262
460.948;   54.203;   -9.924;  689.503
461.538;   55.341;  -10.484;  660.677
462.128;   53.148;  -10.703;  664.934
462.717;   60.705;  -11.486;  710.326
463.307;   64.106;  -10.767;  705.846
463.897;   59.239;   -8.814;  656.942
464.486;   58.457;   -8.182;  837.128
465.076;   63.887;   -9.985;  733.776
465.666;   66.957;  -10.447;  652.900
466.255;   64.302;   -7.754;  785.651
466.845;   62.851;  -10.884;  666.749
467.434;   67.241;  -12.525;  725.873
468.023;   67.423;  -11.456;  658.357
468.613;   64.244;   -9.173;  713.946
469.202;   68.701;   -9.306;  646.507
469.791;   73.939;   -8.917;  737.811
470.381;   76.340;   -9.657;  742.813
470.970;   76.100;   -9.947;  711.099
471.559;   74.766;   -9.256;  733.291
472.148;   77.727;  -13.397;  675.737
472.738;   80.820;   -9.928;  765.466
473.327;   79.679;  -10.897;  637.529
473.916;   79.548;   -8.526;  737.446
474.505;   84.239;  -11.078;  751.703
475.094;   88.496;   -9.559;  806.570
475.683;   87.567;   -8.838;  797.699
476.272;   87.583;  -10.198;  730.632
476.861;   91.047;  -11.489;  706.754
477.449;   97.017;  -10.721;  728.487
478.038;   91.505;   -9.818;  692.513
478.627;   92.211;   -9.887;  714.852
479.216;   99.239;  -10.030;  769.441
479.805;  102.553;   -9.401;  783.375
480.393;  101.894;   -5.739; 1008.945
480.982;  100.909;   -7.838;  874.501
481.571;  107.683;   -9.111;  858.333
482.159;  108.703;  -10.601;  705.386
482.748;  108.395;   -8.500;  821.385
483.336;  111.650;   -9.241;  858.209
483.925;  113.990;  -10.440;  774.373
484.513;  120.791;  -11.063;  758.962
485.102;  116.965;   -9.540;  810.965
485.690;  126.006;   -6.742; 1011.050
486.278;  129.014;   -8.442;  979.329
486.867;  128.436;  -10.472;  809.662
487.455;  130.826;   -8.811;  898.229
488.043;  131.734;  -10.721;  748.361
488.631;  141.437;  -10.393; 1005.079
489.220;  145.223;  -10.843;  908.626
489.808;  144.867;  -10.572;  741.415
490.396;  153.296;  -10.482;  914.645
490.984;  159.135;  -11.542;  830.161
491.572;  171.307;   -8.463;  940.315
492.160;  176.296;   -8.491;  919.081
492.748;  188.537;   -9.681;  884.341
493.336;  211.434;  -10.493; 1019.693
493.924;  239.115;   -9.354;  958.077
494.512;  271.620;   -9.132; 1066.638
495.100;  316.668;   -9.001; 1103.280
495.687;  377.034;  -11.924; 1206.373
496.275;  461.166;  -11.193; 1150.796
496.863;  543.501;   -9.241; 1281.171
497.451;  646.578;  -11.341; 1386.805
498.038;  780.330;  -11.364; 1556.729
498.626;  898.550;   -8.104; 1741.407
499.214; 1084.727;   -8.842; 2016.609
499.801; 1341.749;  -10.112; 2220.633
500.389; 1559.711;  -11.953; 2312.494
500.976; 1764.129;  -10.023; 2744.849
501.564; 2040.269;   -8.662; 3148.565
502.151; 2406.246;  -10.531; 3515.999
502.738; 2825.058;  -13.853; 3971.274
503.326; 3388.182;  -10.794; 4403.796
503.913; 3839.781;   -8.663; 5161.749
504.500; 4517.314;  -10.172; 5986.420
505.088; 5475.989;  -13.472; 6381.201
505.675; 6029.959;  -10.924; 6925.547
506.262; 6084.092;   -8.551; 7619.060
506.849; 6616.950;  -10.523; 8733.969
507.436; 7629.538;  -10.834; 9790.121
508.023; 8092.100;   -9.093; 9985.472
508.610; 8346.479;  -10.073;10434.618
509.197; 9518.033;   -9.500;11198.435
509.784;11408.297;  -13.242;12391.194
510.371;12354.091;  -10.964;13603.713
510.958;12871.005;   -9.772;14426.586
511.545;13282.427;   -7.842;15243.775
512.132;13295.230;  -12.184;15945.876
512.719;14665.767;   -9.733;16340.369
513.305;17596.486;   -9.172;18011.766
513.892;18945.279;   -9.581;19754.971
514.479;19985.023;  -10.253;20967.805
515.066;20852.271;   -8.183;22299.793
515.652;21840.297;   -9.253;22908.660
516.239;23476.783;   -9.412;23798.875
516.825;24769.330;  -11.153;25567.275
517.412;24457.020;  -10.263;28154.959
517.998;24222.826;   -8.802;28344.111
518.585;24712.078;  -10.401;27134.219
519.171;24576.484;  -12.744;27268.576
519.758;25756.082;  -11.793;28964.129
520.344;28852.627;   -8.912;30664.494
520.930;32151.920;  -10.901;32550.605
521.516;32434.918;  -12.034;35422.895
522.103;33166.113;  -10.473;38280.004
522.689;34460.961;   -8.311;37835.117
523.275;35905.137;  -10.691;37288.613
523.861;37188.375;  -11.193;37281.395
524.447;34714.289;  -11.484;37846.949
525.033;34825.445;   -7.702;38321.949
525.619;35091.930;  -11.241;38579.285
526.205;35270.629;  -12.152;40622.875
526.791;36137.465;  -11.423;42258.836
527.377;36535.297;   -7.981;42966.902
527.963;37020.887;   -9.450;42018.949
528.549;36938.922;  -11.351;42476.828
529.135;36984.156;  -10.202;41854.852
529.721;38420.434;   -8.672;41237.711
530.306;37926.852;   -9.111;41259.445
530.892;39565.434;  -11.252;41506.047
531.478;42711.664;  -10.432;43559.613
532.063;44618.504;  -10.721;47695.563
532.649;45602.746;   -7.450;50808.324
533.235;47061.121;  -11.811;51787.500
533.820;45954.434;   -9.383;52145.035
534.406;43563.422;   -9.400;51133.488
534.991;42935.551;   -8.861;49996.805
535.576;44420.605;  -10.612;48882.852
536.162;42517.410;   -7.322;46942.285
536.747;41636.121;   -9.360;45711.746
537.333;42840.836;  -10.450;48510.180
537.918;45962.391;  -12.610;50439.891
538.503;46656.910;  -12.132;50863.711
539.088;43375.766;  -10.831;50906.922
539.673;42313.574;  -11.220;52621.965
540.259;46435.164;  -11.481;52368.094
540.844;46956.824;  -11.462;50879.109
541.429;47842.977;   -7.869;52077.777
542.014;46427.148;  -11.859;52716.695
542.599;44667.672;  -11.061;52363.281
543.184;45079.516;  -12.300;53187.137
543.769;46070.652;   -9.369;54697.605
544.354;47433.578;  -12.020;53913.914
544.938;43302.797;  -10.350;49680.164
545.523;39915.785;  -10.841;47386.277
546.108;42734.512;   -8.579;49151.949
546.693;45436.641;   -8.818;51384.637
547.278;47036.012;  -11.331;51853.254
547.862;46043.082;  -10.292;51173.750
548.447;44497.820;   -8.349;51691.395
549.031;44194.891;  -10.838;52456.703
549.616;45594.395;  -11.681;52714.516
550.201;47942.859;  -11.140;52414.598
550.785;46201.363;   -8.649;52355.059
551.370;45842.227;  -11.889;54589.453
551.954;47012.379;  -11.239;58267.348
552.538;48736.398;   -8.850;59062.176
553.123;51167.816;  -10.829;58115.285
553.707;52479.168;   -8.887;56556.285
554.291;49200.875;  -10.430;56201.668
554.876;47179.848;   -9.799;55335.762
555.460;44744.293;  -10.018;54155.703
556.044;44157.500;   -7.307;53721.484
556.628;47389.730;  -12.229;53731.016
557.212;48028.441;   -9.820;54312.531
557.796;45910.465;   -9.109;53797.773
558.380;43057.496;   -9.707;56145.984
558.964;44350.066;  -10.980;57277.930
559.548;47813.227;  -12.010;56459.641
560.132;48153.230;   -7.928;54434.543
560.716;50196.422;  -10.247;54800.617
561.300;50219.363;  -11.250;57606.945
561.884;47538.977;  -10.568;58972.445
562.467;45521.938;   -9.727;57327.570
563.051;42011.047;  -11.847;54962.434
563.635;41916.418;  -10.747;52594.473
564.219;42553.410;  -13.108;50610.410
564.802;41404.430;  -11.417;49551.180
565.386;40345.180;  -10.457;48370.953
565.969;42851.652;   -8.959;48178.871
566.553;43341.895;  -10.328;49957.305
567.136;43623.391;  -10.257;50369.594
567.720;43254.461;  -10.186;49492.004
568.303;42160.691;  -10.027;50616.352
568.887;42646.820;  -10.397;50727.148
569.470;44208.195;   -8.185;51698.379
570.053;42933.852;  -11.596;52122.078
570.637;41170.348;  -11.378;52536.438
571.220;41109.977;   -9.138;51186.098
571.803;40067.828;   -7.675;51032.762
572.386;37853.320;   -8.976;49609.887
572.969;38322.551;  -12.477;48285.926
573.552;39002.164;   -9.767;47624.285
574.135;37835.664;   -8.175;45498.641
574.718;32989.137;  -11.096;41970.434
575.301;32265.059;  -11.966;41447.137
575.884;31540.980;  -12.836;40923.836
576.467;37082.234;   -9.116;45267.723
577.050;39343.957;  -10.536;48175.543
577.633;39223.750;  -11.027;47729.328
578.216;37511.609;   -9.946;47579.793
578.799;36685.375;   -9.645;47820.996
579.381;36644.402;   -9.446;48115.551
579.964;37037.168;  -12.217;47333.766
580.547;37539.426;  -10.586;46668.969
581.129;36953.387;   -8.374;44466.141
581.712;35360.836;  -10.434;44164.922
582.294;34416.008;  -10.896;46477.855
582.877;35295.086;   -8.906;48244.254
583.459;36709.223;   -9.994;47437.895
584.042;36463.008;  -10.084;46943.219
584.624;34931.609;  -13.534;46792.227
585.206;33592.836;  -12.716;46557.250
585.789;34703.688;  -11.614;45793.773
586.371;35335.418;  -10.203;43836.391
586.953;33753.355;  -10.314;42972.492
587.536;31827.928;   -9.776;42487.211
588.118;32377.893;   -9.821;42086.414
588.700;33599.027;  -10.073;43389.930
589.282;34939.582;  -12.395;43646.039
589.864;33621.445;  -11.514;43438.109
590.446;34134.402;  -10.803;43151.926
591.028;35637.297;  -11.043;42781.867
591.610;35422.078;  -13.244;42839.098
592.192;32097.908;  -11.095;42820.402
592.774;29544.498;  -10.823;40724.277
593.356;28884.795;  -11.052;39874.789
593.937;30926.709;  -11.664;39980.648
594.519;33196.105;  -10.454;42069.633
595.101;33636.461;  -10.322;42976.031
595.683;32199.686;  -10.042;44084.441
596.264;30900.477;  -14.334;43478.797
596.846;31507.988;  -10.863;43803.672
597.427;32110.617;   -9.901;42986.934
598.009;32566.422;  -10.911;42832.219
598.591;33187.805;  -10.483;42580.086
599.172;31996.793;   -9.663;43061.805
599.753;30245.074;  -10.631;41691.469
600.335;29566.451;   -9.371;40692.520
600.916;30871.686;  -13.992;39982.422
601.498;32262.805;   -8.352;40318.617
602.079;30381.143;   -8.411;40670.609
602.660;31583.730;  -10.841;41450.898
603.241;33143.105;  -12.963;41137.738
603.823;31426.945;  -11.523;38868.797
604.404;28422.000;  -11.881;38182.785
604.985;27136.980;  -11.721;38078.047
605.566;27914.096;   -9.293;38056.633
606.147;28855.820;  -10.940;37020.418
606.728;29235.508;  -11.840;37883.359
607.309;29174.414;  -11.781;38748.273
607.890;29736.133;  -11.262;38850.230
608.471;29532.984;  -10.111;37457.918
609.051;29637.160;   -7.709;36066.457
609.632;30226.086;  -12.409;35991.074
610.213;29037.342;  -10.811;37402.641
610.794;28138.896;  -11.630;38383.363
611.374;29222.738;   -8.030;40562.387
611.955;30266.563;  -10.809;38533.727
612.536;31918.309;  -10.531;36951.789
613.116;32551.082;  -12.820;37197.891
613.697;31723.766;  -11.419;38411.125
614.277;31184.348;   -9.768;38673.938
614.858;31059.525;  -10.251;37075.863
615.438;27733.076;  -11.981;35092.906
616.019;25821.797;   -8.978;33666.301
616.599;28393.441;  -12.219;34189.023
617.179;31654.734;  -14.170;36952.047
617.760;33027.887;   -9.211;39582.574
618.340;33160.910;   -9.018;38943.977
618.920;32023.551;   -9.249;37594.156
619.500;31313.096;  -12.728;37866.938
620.080;32876.586;  -12.939;37869.043
620.660;32294.707;  -11.586;36868.617
621.241;31429.799;  -11.538;36352.309
621.821;31741.545;  -11.398;35459.520
622.401;32298.855;  -10.179;35207.414
622.980;32777.273;  -11.587;35980.422
623.560;31741.775;  -12.888;37351.328
624.140;29540.549;  -13.149;34388.582
624.720;25051.930;   -9.928;32368.764
625.300;24594.596;  -10.869;32638.629
625.880;28915.713;   -8.617;34599.035
626.459;33850.703;  -12.138;36831.738
627.039;35615.918;  -12.267;38299.098
627.619;35188.117;   -7.476;38289.574
628.198;35798.211;  -11.347;37220.695
628.778;35201.871;  -11.678;37632.563
629.357;33045.867;  -12.438;38003.012
629.937;30998.303;   -9.576;38402.039
630.516;30282.270;  -11.096;37868.801
631.096;29885.777;  -11.828;35760.410
631.675;29891.420;  -11.565;35225.219
632.254;29846.996;  -11.845;35130.289
632.834;30721.051;  -11.545;35794.570
633.413;31529.609;  -10.887;35788.922
633.992;33385.871;  -10.175;34532.863
634.571;32698.996;   -9.704;33590.113
635.151;30484.264;  -10.815;34943.863
635.730;30051.471;  -11.617;35352.523
636.309;29199.068;  -10.836;35366.605
636.888;29656.473;   -9.755;36165.637
637.467;30701.166;  -11.684;37515.902
638.046;32950.184;  -11.987;39288.695
638.625;34091.191;  -10.455;38279.699
639.204;33269.359;  -11.234;37741.598
639.782;30319.305;  -12.023;38364.551
640.361;28545.211;  -11.506;36740.621
640.940;28494.959;  -12.316;34950.082
641.519;30001.297;  -11.616;34137.398
642.097;33426.586;   -9.266;35654.258
642.676;34188.652;  -12.936;35637.957
643.255;33127.191;   -9.966;36567.074
643.833;32453.971;   -8.916;37809.434
644.412;33379.000;  -10.936;37337.293
644.990;35942.445;  -12.176;37018.531
645.569;36587.195;  -12.246;36518.469
646.147;36224.473;  -12.107;36186.430
646.726;35496.941;  -12.937;36267.688
647.304;37911.711;  -12.547;36647.625
647.882;39073.309;  -12.597;39286.742
648.461;37063.191;   -9.427;39157.703
649.039;34300.152;   -8.937;35412.883
649.617;32178.961;  -11.067;34744.918
650.195;32492.010;  -10.657;35403.098
650.773;32113.236;  -10.097;35053.797
651.352;30063.670;  -11.887;33756.816
651.930;25905.045;  -13.557;31868.773
652.508;22883.090;  -11.767;33121.551
653.086;23964.283;  -10.777;33564.793
653.663;28060.545;  -12.067;34054.668
654.241;31047.402;  -14.918;35693.309
654.819;32216.578;  -11.788;36422.906
655.397;31872.984;  -11.268;38213.484
655.975;33316.867;  -11.738;39507.625
656.553;32678.656;  -11.018;39498.223
657.130;31482.658;  -12.848;40395.480
657.708;31127.170;  -10.098;39242.020
658.286;31688.738;  -11.678;38920.020
658.863;33563.902;  -11.498;40202.898
659.441;35743.414;  -11.008;39677.938
660.018;36581.855;  -11.048;40413.355
660.596;36387.898;  -12.058;39931.414
661.173;35444.945;  -14.158;39604.531
661.750;35043.773;  -12.298;39700.070
662.328;34156.988;  -10.699;39292.809
662.905;31908.887;  -12.119;38235.648
663.482;27083.123;  -11.829;36212.305
664.060;26052.043;  -11.009;35944.945
664.637;28978.543;  -10.369;35170.785
665.214;29526.443;  -10.459;34197.523
665.791;28257.127;  -12.599;34549.520
666.368;28103.578;  -12.919;35118.578
666.945;30139.240;  -10.699;36019.418
667.522;31311.719;  -11.359;36048.438
668.099;31661.338;  -13.529;36243.914
668.676;32046.410;  -10.229;35958.875
669.253;31941.768;   -9.279;37384.730
669.830;30794.357;  -11.370;36779.629
670.407;31047.246;  -10.950;35231.289
670.984;31949.801;  -12.850;35544.270
671.560;31493.949;   -8.440;35466.867
672.137;30029.803;  -13.520;34280.863
672.714;29015.273;  -13.620;34632.863
673.290;29663.715;  -10.450;35135.422
673.867;29237.666;  -10.960;36114.480
674.443;28094.730;  -13.300;36152.859
675.020;28583.727;  -12.370;35327.238
675.596;28843.188;  -11.250;35795.176
676.173;29112.588;  -11.080;35430.355
676.749;29308.816;  -13.220;33549.516
677.326;31922.207;  -13.000;32210.012
677.902;33541.801;  -12.701;32068.871
678.478;33782.473;  -12.801;32583.891
679.054;33073.582;   -8.601;32088.928
679.631;33472.777;  -12.631;30978.848
680.207;32973.293;   -9.451;33160.887
680.783;31735.158;  -11.701;35570.363
681.359;31461.623;  -12.701;36125.184
681.935;31125.945;  -13.271;35240.922
682.511;30063.490;  -10.791;34429.961
683.087;30419.473;  -10.791;34463.680
683.663;30719.838;   -8.121;34648.898
684.239;32440.670;  -13.261;34546.457
684.815;31817.531;  -10.581;35586.375
685.390;28758.111;   -9.961;35821.895
685.966;27574.092;  -11.182;35085.871
686.542;27280.898;  -13.512;34198.230
687.118;27720.930;  -11.472;32847.707
687.693;27906.984;  -10.152;32794.027
688.269;28994.816;  -14.442;33072.367
688.844;30565.926;  -11.852;33141.664
689.420;28871.367;  -13.942;33965.742
689.995;27618.496;   -9.702;34655.523
690.571;27516.920;  -11.312;33576.742
691.146;26953.273;  -14.332;32657.219
691.722;28057.732;  -11.192;32526.979
692.297;30388.141;  -10.962;33014.617
692.872;29567.438;  -11.082;34012.254
693.448;28663.355;  -14.732;34237.434
694.023;28576.893;  -12.363;34142.672
694.598;28681.912;  -12.393;34132.031
695.173;27540.641;  -11.023;34205.250
695.748;27012.361;  -12.743;32882.488
696.323;28279.787;  -11.103;32864.906
696.898;29217.674;   -8.123;33170.004
697.473;28977.023;  -12.603;32432.984
698.048;28899.283;  -12.553;31649.303
698.623;30468.721;  -12.573;30778.141
699.198;33743.637;  -12.743;31140.119
699.773;31471.604;  -12.843;31764.299
700.348;30120.355;  -16.683;31780.816
700.922;30383.174;  -11.403;32046.375
701.497;30932.711;  -11.253;32603.574
702.072;31335.348;  -10.044;34799.871
702.646;30866.359;  -13.054;35793.172
703.221;29578.881;  -11.414;35201.590
703.795;29866.822;  -10.644;34764.527
704.370;31427.344;  -13.484;34307.367
704.944;31424.926;  -12.144;33509.887
705.519;30350.314;  -12.024;31388.584
706.093;28971.299;  -11.234;31340.104
706.668;27005.416;   -9.874;32630.281
707.242;26221.285;  -12.404;32728.779
707.816;26276.488;  -10.644;32947.238
708.390;25998.283;  -11.174;33277.855
708.965;26446.049;  -10.324;33834.336
709.539;26474.998;  -12.014;33709.273
710.113;26609.018;  -12.295;33044.313
710.687;27521.576;  -10.965;31953.992
711.261;27955.264;  -13.685;30505.949
711.835;27179.564;  -15.335;30262.369
712.409;26492.420;  -13.785;31254.447
712.983;26919.807;  -10.525;32754.986
713.557;28174.115;  -13.175;34018.824
714.131;29221.299;  -13.245;34579.625
714.704;31310.402;  -13.175;33890.262
715.278;33956.293;  -11.545;33531.102
715.852;33634.535;  -10.975;33601.660
716.425;32105.715;  -10.075;33515.117
716.999;31293.793;  -12.185;33185.555
717.573;31704.104;   -9.685;33905.996
718.146;33603.387;  -10.516;35199.293
718.720;30659.834;  -12.106;35060.551
719.293;29840.318;  -12.386;34973.230
719.867;33196.906;  -12.456;36394.449
720.440;33378.484;  -10.686;36663.008
721.013;33306.078;  -12.596;35102.426
721.587;33160.746;  -13.956;33985.266
722.160;32523.115;   -9.806;33524.965
722.733;32486.652;  -11.676;32987.043
723.306;31968.010;  -14.276;33066.301
723.880;32124.104;  -12.126;33399.500
724.453;33578.094;  -10.156;33468.297
725.026;32098.490;  -12.956;33816.637
725.599;29447.430;  -11.676;32797.996
726.172;27949.936;  -12.337;33187.434
726.745;28794.486;  -11.277;35136.613
727.318;28607.588;  -11.927;35751.730
727.891;27277.355;  -13.607;35890.430
728.463;27154.820;  -11.327;34822.090
729.036;26327.500;  -11.917;32895.086
729.609;26739.518;  -12.697;31823.225
730.182;27491.551;  -11.787;31445.283
730.754;28180.633;  -12.957;32373.223
731.327;29114.635;  -11.017;33676.820
731.900;27833.297;  -12.797;33417.000
732.472;25877.594;  -10.677;31978.498
733.045;25215.309;  -12.797;30368.777
733.617;26230.955;  -13.908;30574.215
734.190;26289.279;  -12.258;31280.975
734.762;27028.088;  -13.438;31674.412
735.334;27258.129;  -11.758;31247.291
735.907;27069.736;  -11.158;29876.211
736.479;28505.742;  -11.258;29808.488
737.051;31008.080;  -10.918;30233.547
737.623;32193.432;  -11.038;31469.086
738.195;31817.678;  -12.188;31784.225
738.768;27946.258;  -11.378;32120.523
739.340;26395.041;  -12.598;32094.342
739.912;28132.668;  -11.568;31312.680
740.484;29098.967;   -9.348;31946.238
741.056;28482.348;  -12.628;32984.059
741.628;28231.764;  -13.349;33897.715
742.199;28346.006;  -11.309;33213.016
742.771;27633.316;  -12.699;31369.113
743.343;28484.650;  -11.919;31865.473
743.915;28601.500;  -11.679;32388.631
744.487;27290.773;  -12.249;31079.568
745.058;25659.920;  -11.119;30570.107
745.630;24611.432;   -9.439;29970.127
746.201;25245.416;  -11.949;29186.766
746.773;25661.063;  -12.639;28805.723
747.344;25153.018;  -11.039;29591.223
747.916;24273.785;  -12.549;31412.201
748.487;23278.309;  -12.659;32194.898
749.059;22508.123;  -13.059;32533.719
749.630;23843.600;  -12.080;32158.518
750.201;23809.961;  -13.100;30855.395
750.773;22687.484;  -15.310;28622.555
751.344;21806.139;  -12.240;28405.732
751.915;21181.029;  -11.960;28461.551
752.486;20955.998;  -13.200;27842.850
753.057;21122.227;  -15.230;27845.008
753.628;21547.779;  -13.130;27728.107
754.199;21742.277;  -12.720;27381.086
754.770;21452.928;  -10.680;25882.203
755.341;21370.625;  -11.010;25886.184
755.912;20764.340;  -12.990;26050.861
756.483;19437.307;  -11.110;26798.779
757.054;18932.770;  -12.190;27048.238
757.625;19335.842;  -13.981;26294.838
758.195;19166.305;  -11.041;26142.076
758.766;19895.904;  -11.861;26392.234
759.337;20659.793;  -11.461;26334.594
759.907;21770.043;  -15.001;27579.652
760.478;21752.471;   -9.681;28352.770
761.048;21097.631;  -12.421;27325.088
761.619;20682.113;  -11.761;26460.428
762.189;19214.889;  -12.391;26029.826
762.760;18200.787;  -10.201;26430.145
763.330;18489.836;  -10.811;26670.902
763.900;21011.975;  -10.261;26603.021
764.471;21661.201;  -13.061;25542.740
765.041;20076.896;  -11.051;24358.459
765.611;19654.471;  -11.032;23991.297
766.181;19381.738;  -10.532;24470.236
766.751;19197.096;  -13.502;24845.975
767.321;19092.316;  -11.392;24533.633
767.891;19233.197;  -11.522;24916.492
768.461;19887.232;  -13.672;24776.771
769.031;19722.455;  -14.652;24757.988
769.601;19045.848;  -10.182;24181.088
770.171;17485.432;  -11.752;23670.387
770.741;15596.151;  -12.272;22960.045
771.311;15190.864;  -13.112;22917.523
771.880;15476.500;  -14.122;23562.941
772.450;16544.990;  -11.782;24216.500
773.020;18588.172;  -12.642;24140.398
773.589;18319.816;  -13.043;24414.857
774.159;16247.226;  -11.783;23858.717
774.729;15113.940;  -13.473;22942.135
775.298;15805.735;  -14.523;22324.033
775.867;16558.607;  -12.013;21140.313
776.437;15817.169;  -12.113;20838.092
777.006;14448.781;  -13.543;20599.510
777.576;13188.314;  -12.523;20508.809
778.145;12665.938;  -12.173;20732.947
778.714;13477.582;  -12.153;21062.465
779.283;14002.865;  -11.833;20949.664
779.853;14823.742;  -13.483;20508.623
780.422;15629.906;  -12.933;20649.082
780.991;15152.842;  -13.173;21527.520
781.560;13410.483;  -10.224;22632.658
782.129;12723.515;  -12.684;23048.277
782.698;13954.742;  -11.284;23438.555
783.267;15222.233;  -11.684;23267.734
783.836;14584.885;  -10.974;22415.133
784.404;13377.917;  -13.534;20443.152
784.973;13266.862;  -16.734;19699.150
785.542;13209.411;  -12.594;19763.828
786.111;12790.795;  -11.644;20341.408
786.679;13117.017;  -11.384;20207.967
787.248;13941.995;  -12.014;19516.465
787.817;13015.002;  -12.804;18900.363
788.385;11868.071;  -11.994;17879.121
788.954;11944.300;  -12.564;17658.301
789.522;13181.111;  -12.225;17788.879
790.090;13426.911;  -13.775;18118.277
790.659;12461.364;  -12.485;18338.736
791.227;11775.720;  -12.295;18508.615
791.795;11753.709;  -13.415;17898.254
792.364;11150.241;  -12.995;17295.133
792.932;10781.501;   -8.365;16822.051
793.500;10956.838;  -11.925;17040.148
794.068;11321.380;  -13.245;17179.787
794.636;11434.089;  -13.815;16664.246
795.204;10777.818;  -13.375;16524.545
795.772;10624.331;  -12.125;17274.564
796.340;11028.747;  -13.855;17891.002
796.908;11409.650;  -13.456;17648.561
797.476;10895.379;  -13.116;17064.080
798.044;10196.482;  -13.226;16672.777
798.612;10722.059;  -11.236;17023.996
799.180;11825.285;  -10.476;16561.615
799.747;12081.056;  -11.746;15962.773
800.315;11214.882;  -12.366;15296.992
800.883;10252.054;  -14.616;14801.771
801.450; 9874.833;  -11.996;14534.430
802.018;10570.672;  -11.206;14173.248
802.585;10144.417;  -12.466;14029.547
803.153; 9175.693;  -12.846;13836.846
803.720; 8906.739;  -12.136;13567.324
804.287; 8753.549;  -10.966;13360.622
804.855; 8860.900;   -9.797;13681.981
805.422; 8768.615;  -13.037;13536.560
805.989; 8516.346;  -12.697;13355.958
806.556; 8665.731;  -11.737;13747.896
807.124; 8964.479;  -11.997;13987.376
807.691; 8489.298;  -13.997;14038.674
808.258; 8263.728;  -10.927;14120.152
808.825; 8738.313;  -13.727;13860.111
809.392; 9194.052;  -11.847;13268.790
809.959; 8657.177;  -14.217;12680.389
810.526; 7796.361;   -8.277;12427.308
811.093; 7587.621;   -9.647;12030.105
811.659; 7497.519;  -10.987;11653.664
812.226; 7069.477;  -13.447;11637.183
812.793; 7143.750;  -14.418;11611.521
813.360; 7578.527;  -13.908;11885.181
813.926; 7714.766;  -12.918;12770.539
814.493; 7560.127;  -14.888;12677.638
815.060; 7632.121;  -12.758;11974.336
815.626; 7978.593;  -13.478;11594.715
816.193; 8070.386;  -13.898;11579.474
816.759; 7809.433;  -13.588;11666.972
817.325; 7735.976;  -12.018;11325.530
817.892; 7399.934;  -14.068;11105.369
818.458; 6679.135;  -13.458;10843.928
819.024; 6354.527;  -11.968;10714.406
819.591; 6023.096;  -11.028;10469.165
820.157; 5733.881;  -12.088;10235.523
820.723; 5685.416;  -12.599;10847.563
821.289; 5937.870;  -10.419;11040.980
821.855; 6625.977;  -10.939;10357.100
822.421; 7263.387;  -12.539; 9978.918
822.987; 7234.429;  -13.259; 9754.177
823.553; 6594.286;  -15.369;10065.755
824.119; 6328.417;  -10.779;10036.294
824.685; 5939.811;   -9.999;10029.192
825.251; 5570.998;  -11.819;10199.230
825.816; 5334.931;  -13.369; 9820.189
826.382; 5422.626;  -12.679; 9297.248
826.948; 5717.200;  -11.199; 9381.347
827.513; 5660.772;  -11.179; 9450.726
828.079; 5597.524;  -13.489; 9472.444
828.645; 5903.598;  -12.500; 9292.643
829.210; 6230.740;  -15.120; 9065.341
829.776; 6166.609;  -12.590; 9132.620
830.341; 5983.179;  -11.540; 9092.878
830.906; 5908.389;  -12.400; 9078.557
831.472; 5768.851;  -12.720; 8534.535
832.037; 5353.242;  -11.490; 8677.874
832.602; 4913.817;  -14.380; 8628.692
833.167; 5088.108;  -12.780; 8879.031
833.733; 5326.135;  -11.100; 9189.790
834.298; 5551.285;  -12.080; 9052.608
834.863; 5646.117;  -13.910; 8895.087
835.428; 5410.333;  -13.470; 8824.266
835.993; 5622.514;  -11.760; 8845.385
836.558; 5994.985;  -12.731; 8888.563
837.123; 6115.520;  -12.431; 8966.582
837.688; 5871.999;  -11.241; 8617.860
838.253; 5517.079;  -13.681; 8590.699
838.817; 5159.791;  -12.531; 8443.797
839.382; 5200.858;  -12.671; 8799.356
839.947; 5223.552;  -11.541; 8810.595
840.511; 5068.111;  -12.021; 8796.394
841.076; 5069.583;  -13.071; 8347.231
841.641; 5029.722;  -11.411; 8224.330
842.205; 4801.656;  -13.671; 8223.349
842.770; 4683.288;  -11.291; 8622.107
843.334; 4761.425;  -12.951; 8410.386
843.898; 4824.338;  -11.221; 8337.465
844.463; 4767.270;  -11.322; 8506.283
845.027; 4577.065;  -11.412; 8280.962
845.591; 4330.251;  -11.512; 8231.141
846.156; 4497.456;  -14.042; 7969.179
846.720; 4779.892;  -12.152; 7768.278
847.284; 4726.128;  -10.922; 7630.957
847.848; 4390.310;  -10.962; 7472.395
848.412; 4030.843;  -14.612; 7437.394
848.976; 4026.381;  -11.492; 7674.592
849.540; 4062.313;   -9.172; 7836.011
850.104; 4340.230;  -11.232; 7913.669
850.668; 4799.849;  -15.182; 7694.508
851.232; 4594.173;  -15.332; 7756.887
851.796; 4210.592;  -13.703; 7926.545
852.359; 4237.598;  -11.113; 7827.844
852.923; 4283.040;  -11.843; 7641.163
853.487; 4197.908;  -11.173; 7342.501
854.050; 3999.011;  -13.443; 7042.820
854.614; 3778.050;  -13.823; 7151.338
855.177; 3726.410;  -16.393; 7105.077
855.741; 3839.589;  -11.693; 6989.675
856.304; 3920.265;  -10.843; 6596.634
856.868; 3861.421;  -13.783; 6356.272
857.431; 3642.832;  -11.953; 6468.571
857.995; 3457.477;  -13.683; 6373.210
858.558; 3426.452;  -11.433; 6324.448
859.121; 3395.286;  -12.493; 6408.327
859.684; 3360.189;  -12.384; 6347.886
860.247; 3298.424;  -14.774; 6321.264
860.810; 3150.153;  -13.154; 6301.903
861.374; 3043.351;  -11.264; 6607.881
861.937; 3000.398;  -15.424; 6408.200
862.500; 2995.697;  -12.854; 6572.639
863.062; 3021.060;  -12.344; 6387.297
863.625; 3019.079;  -13.314; 6190.836
864.188; 2861.929;  -14.724; 5807.254
864.751; 2739.109;  -13.464; 5682.413
865.314; 2683.701;  -11.684; 5547.492
865.876; 2720.289;  -11.104; 5500.150
866.439; 2863.896;  -12.344; 5415.909
867.002; 2890.998;  -13.494; 5501.567
867.564; 2924.034;  -10.935; 5413.946
868.127; 2825.065;  -12.665; 5160.325
868.689; 2647.130;  -14.515; 5133.183
869.252; 2644.167;  -13.425; 5252.382
869.814; 2647.409;  -11.595; 5297.141
870.377; 2621.313;  -12.175; 5390.919
870.939; 2483.749;  -10.265; 5599.898
871.501; 2368.740;  -12.375; 5248.336
872.063; 2350.813;  -14.355; 4854.235
872.626; 2414.086;  -14.435; 4817.074
873.188; 2340.930;  -12.415; 4987.732
873.750; 2274.855;  -14.555; 4868.651
874.312; 2279.102;  -11.185; 4779.330
874.874; 2243.614;  -12.715; 4866.348
875.436; 2134.030;  -13.196; 4718.887
875.998; 2048.298;  -11.426; 4660.005
876.560; 1964.710;   -9.786; 4462.964
877.122; 1948.071;  -12.796; 4145.042
877.683; 1894.087;  -13.226; 4056.481
878.245; 1790.095;  -12.036; 3950.740
878.807; 1674.543;  -11.536; 4058.958
879.369; 1634.131;  -10.806; 3954.677
879.930; 1715.278;  -13.946; 3941.495
880.492; 1824.426;  -11.876; 4067.014
881.053; 1762.662;  -13.216; 3859.633
881.615; 1642.737;  -12.226; 3776.071
882.176; 1585.559;  -12.946; 3734.750
882.738; 1581.866;  -10.736; 3678.489
883.299; 1534.697;  -12.057; 3405.407
883.860; 1429.215;  -12.677; 3351.106
884.422; 1363.170;  -14.097; 3394.044
884.983; 1309.507;  -13.667; 3166.443
885.544; 1242.758;  -10.717; 3189.802
886.105; 1187.807;  -14.357; 3160.360
886.666; 1133.802;  -14.287; 3093.059
887.227; 1075.512;  -14.297; 2941.957
887.788; 1030.552;  -13.137; 2974.836
888.349;  966.802;  -14.637; 2721.214
888.910;  903.060;  -12.247; 2696.493
889.471;  900.474;  -10.577; 2560.172
890.032;  896.740;  -12.937; 2558.190
890.593;  878.573;  -12.487; 2567.669
891.153;  859.988;  -11.898; 2460.307
891.714;  829.617;  -14.278; 2372.046
892.275;  807.018;  -13.308; 2309.505
892.835;  762.755;  -12.058; 2382.543
893.396;  683.699;  -15.268; 2295.502
893.956;  633.254;  -13.278; 2162.420
894.517;  611.242;  -11.968; 2125.439
895.077;  615.528;  -12.798; 2086.978
895.638;  595.762;  -11.908; 2126.316
896.198;  574.605;  -13.288; 1838.275
896.758;  549.323;  -12.198; 1892.813
897.319;  520.914;  -13.048; 1792.232
897.879;  490.191;  -13.718; 1762.751
898.439;  453.886;  -14.138; 1661.149
898.999;  416.547;  -13.659; 1781.468
899.559;  395.325;  -14.699; 1703.347
900.119;  376.916;  -14.339; 1537.525
900.679;  349.478;  -11.789; 1638.384
901.239;  321.189;  -13.629; 1527.902
901.799;  302.417;  -13.679; 1456.441
902.359;  294.174;  -13.679; 1357.140
902.919;  285.175;  -14.159; 1331.118
903.479;  272.517;  -13.419; 1317.257
904.038;  255.468;  -14.899; 1262.595
904.598;  239.867;  -14.339; 1152.034
905.158;  231.951;  -13.959; 1240.893
905.717;  227.297;  -12.749; 1233.691
906.277;  222.481;  -11.889; 1217.330
906.836;  215.331;  -12.870; 1222.408
907.396;  211.125;  -11.790; 1193.047
907.955;  202.507;  -13.750; 1182.526
908.515;  191.614;  -14.760; 1099.364
909.074;  187.759;  -12.540; 1092.863
909.633;  182.762;  -12.120; 1069.121
910.192;  177.431;  -12.550; 1196.460
910.752;  169.967;  -12.760; 1029.960
911.311;  166.731;  -14.750; 1009.780
911.870;  164.604;  -13.860;  971.460
912.429;  163.590;  -13.480; 1094.080
912.988;  163.790;  -12.370; 1081.060
913.547;  159.720;  -14.670;  940.380
914.106;  159.886;  -12.800;  999.420
914.665;  158.422;  -11.370;  984.020
915.224;  155.251;  -11.430; 1035.760
915.782;  152.412;  -12.260;  922.560
916.341;  151.705;  -12.540; 1049.840
916.900;  148.458;  -12.540;  925.260
917.458;  145.549;  -13.480;  884.220
918.017;  145.889;  -12.470;  942.600
918.576;  145.859;  -13.450;  904.440
919.134;  144.966;  -12.890;  837.980
919.693;  143.239;  -15.480;  893.060
920.251;  142.142;  -14.420;  876.500
920.809;  141.060;  -12.170;  839.580
921.368;  140.216;  -13.650;  885.360
921.926;  139.192;  -12.750;  842.940
922.484;  138.465;  -14.150;  903.360
923.042;  138.572;  -15.100;  880.340
923.601;  140.426;  -10.990;  998.680
924.159;  138.682;  -12.470;  935.560
924.717;  139.324;  -15.640;  841.080
925.275;  141.188;  -12.380;  903.240
925.833;  140.375;  -12.710;  779.320
926.391;  142.351;  -11.200;  938.380
926.949;  143.435;  -16.000;  857.680
927.506;  144.054;  -12.260;  903.500
928.064;  146.467;  -11.300;  877.580
928.622;  145.620;  -13.750;  880.100
929.180;  145.882;  -15.290;  814.180
929.737;  147.486;  -14.500;  808.540
930.295;  150.117;  -10.630;  928.480
930.853;  150.738;  -14.590;  849.100
931.410;  151.288;  -14.450;  821.120
931.968;  154.297;  -14.390;  940.660
932.525;  155.644;  -13.050;  909.380
933.082;  158.577;  -15.620;  811.440
933.640;  167.918;  -15.650;  925.900
934.197;  173.897;  -13.610;  886.360
934.754;  178.442;  -13.320;  897.780
935.312;  177.423;  -13.370;  863.340
935.869;  179.739;  -12.780; 1012.980
936.426;  181.294;  -14.480;  872.800
936.983;  184.651;  -13.180;  889.020
937.540;  184.977;  -15.710;  838.280
938.097;  185.032;  -14.980;  940.120
938.654;  184.244;  -13.060;  898.860
939.211;  182.674;  -12.760;  952.480
939.768;  181.440;  -16.230;  915.420
940.324;  183.581;  -10.940;  904.200
940.881;  181.220;  -12.570;  878.500
941.438;  172.429;  -13.650; 1021.200
941.995;  155.174;  -13.300;  992.560
942.551;  143.442;  -15.800;  875.620
943.108;  138.377;  -14.180;  937.920
943.664;  136.591;  -13.890;  869.340
944.221;  144.101;  -12.640; 1088.140
944.777;  149.905;  -14.700;  869.680
945.334;  158.562;  -13.010;  884.840
945.890;  162.426;  -13.480;  946.480
946.446;  161.652;  -14.920;  947.020
947.003;  161.714;  -13.860;  964.940
947.559;  162.738;  -12.000; 1063.040
948.115;  162.099;  -10.510; 1026.540
948.671;  161.199;  -12.760;  967.300
949.227;  159.983;  -15.390;  859.560
949.783;  158.385;  -15.570;  858.900
950.339;  160.743;  -12.800;  991.000
950.895;  159.894;  -13.780; 1023.840
951.451;  156.960;  -13.810;  925.280
952.007;  157.901;  -12.390;  998.540
952.563;  155.870;  -11.980;  937.780
953.118;  151.777;  -14.070;  904.940
953.674;  150.290;  -14.140;  935.780
954.230;  150.926;  -12.680;  949.640
954.785;  151.819;  -12.770;  936.640
955.341;  150.529;  -11.450;  998.160
955.897;  146.480;  -15.350;  834.660
956.452;  145.608;  -14.200;  953.840
957.008;  145.987;  -10.820; 1083.640
957.563;  141.518;  -13.200; 1009.540
958.118;  137.042;  -14.460;  877.700
958.674;  137.654;  -13.840;  946.780
959.229;  137.515;  -10.670; 1013.980
959.784;  138.353;  -17.040;  832.400
960.339;  141.654;  -12.970; 1001.280
960.894;  142.640;  -12.700;  963.760
961.449;  140.096;  -13.790;  859.960
962.004;  145.387;  -11.760; 1212.840
962.559;  145.433;  -14.840;  860.140
963.114;  144.910;  -14.530;  742.480
963.669;  147.110;  -12.780;  915.500
964.224;  146.677;  -14.330;  874.340
964.779;  144.527;  -14.380;  828.420
965.334;  139.644;  -12.460; 1017.860
965.888;  134.328;  -13.490;  875.360
966.443;  132.895;  -14.140;  972.380
966.998;  129.737;  -16.240;  819.460
967.552;  128.110;  -12.730;  908.380
968.107;  124.693;  -14.510;  868.300
968.661;  125.684;  -11.850;  922.440
969.216;  124.125;  -14.370;  856.280
969.770;  123.087;  -13.010;  917.200
970.324;  123.269;  -12.460;  923.140
970.879;  123.246;  -11.580;  947.180
971.433;  123.144;  -13.130;  952.720
971.987;  120.174;  -12.360;  895.340
972.541;  119.697;  -14.330;  917.100
973.095;  118.652;  -13.310; 1009.460
973.649;  117.634;  -15.830;  809.480
974.203;  120.344;  -15.830;  829.040
974.757;  124.068;  -13.480;  855.220
975.311;  121.703;  -13.720;  872.600
975.865;  119.272;  -15.780;  881.820
976.419;  114.489;  -14.290;  857.400
976.973;  113.764;  -13.210;  849.620
977.526;  110.881;  -12.300;  949.920
978.080;  107.862;  -14.840;  796.780
978.634;  109.817;  -13.100;  921.320
979.187;  106.292;  -12.300;  905.400
979.741;  103.375;  -12.020; 1018.380
980.294;   97.611;  -14.590;  789.160
980.848;   93.732;  -14.390;  717.220
981.401;   93.736;  -14.280;  816.540
981.955;   93.965;  -11.920;  844.300
982.508;   91.586;  -15.790;  746.340
983.061;   91.836;  -12.070;  915.260
983.615;   88.722;  -13.260;  798.800
984.168;   85.224;  -15.540;  770.080
984.721;   85.968;  -13.230;  880.760
985.274;   84.411;  -11.820;  867.500
985.827;   82.187;  -13.510;  834.220
986.380;   78.930;  -14.840;  721.340
986.933;   79.433;  -13.970;  864.800
987.486;   78.782;  -12.450;  861.920
988.039;   77.077;  -11.170;  863.100
988.591;   74.028;  -13.070;  893.260
989.144;   69.974;  -15.530;  737.260
989.697;   70.252;  -14.300;  758.740
990.250;   69.282;  -13.310;  858.100
990.802;   66.558;  -14.490;  755.860
991.355;   69.552;  -12.980;  974.880
991.907;   67.867;  -13.715;  864.320
992.460;   66.181;  -14.450;  753.760
993.012;   64.681;  -12.590;  749.540
993.565;   63.736;  -15.180;  711.360
994.117;   64.649;  -11.630;  950.780
994.669;   61.747;  -13.760;  701.320
995.221;   59.237;  -12.710;  791.920
995.774;   59.492;  -14.620;  787.580
996.326;   58.387;  -13.150;  740.220
996.878;   59.165;  -12.880;  838.420
997.430;   56.440;  -14.580;  699.860
997.982;   56.384;  -14.030;  750.140
998.534;   55.959;  -12.190;  739.060
999.086;   54.419;  -12.990;  738.220
999.638;   53.586;  -13.180;  661.380
1000.190;   53.016;  -14.970;  699.320
1000.741;   53.444;  -12.200;  742.700
1001.293;   52.777;  -13.400;  686.020
1001.845;   51.870;  -14.490;  676.640
1002.396;   52.871;  -15.280;  743.400
1002.948;   51.719;  -12.380;  737.400
1003.500;   50.817;  -13.260;  723.780
1004.051;   51.191;  -13.730;  907.580
1004.603;   50.216;  -12.300;  791.820
1005.154;   46.858;  -15.330;  608.980
1005.705;   45.725;  -12.800;  723.960
1006.257;   44.989;  -13.900;  707.220
1006.808;   44.279;  -14.430;  685.460
1007.359;   44.330;  -12.010;  763.240
1007.910;   41.918;  -12.690;  646.640
1008.461;   41.949;  -13.610;  732.940
1009.013;   40.671;  -14.990;  588.340
1009.564;   42.495;  -11.860;  793.520
1010.115;   39.306;  -12.640;  597.040
1010.665;   39.369;  -14.570;  602.160
1011.216;   39.830;  -15.190;  667.920
1011.767;   39.571;  -13.470;  697.920
1012.318;   39.828;  -13.760;  736.980
1012.869;   38.242;  -15.950;  679.000
1013.419;   38.148;  -15.880;  603.120
1013.970;   38.331;  -14.540;  666.640
1014.521;   37.236;  -13.220;  620.620
1015.071;   37.655;  -15.020;  670.380
1015.622;   36.726;  -17.510;  635.460
1016.172;   36.365;  -14.130;  596.820
1016.723;   35.992;  -14.220;  614.380
1017.273;   35.194;  -15.370;  604.160
1017.823;   36.277;  -15.290;  650.340
1018.374;   35.994;  -13.420;  611.760
1018.924;   36.094;  -11.740;  716.880
1019.474;   36.224;  -12.250;  718.880
1020.024;   35.116;  -15.850;  657.580
1020.574;   35.571;  -13.280;  726.160
1021.124;   35.124;  -13.560;  673.580
1021.674;   33.280;  -13.790;  559.120
1022.224;   35.082;  -14.610;  708.940
1022.774;   34.243;  -13.100;  668.820
1023.324;   35.174;  -11.470;  753.520
1023.874;   34.934;  -11.990;  875.760
1024.423;   33.278;  -14.550;  613.700
1024.973;   32.989;  -14.440;  610.760
1025.523;   32.444;  -13.250;  620.960
1026.072;   31.878;  -15.200;  606.420
1026.622;   32.029;  -14.590;  675.740
1027.172;   33.026;  -11.080;  715.660
1027.721;   31.550;  -14.010;  601.220
1028.270;   31.040;  -13.690;  663.400
1028.820;   31.316;  -15.380;  638.080
1029.369;   31.175;  -14.980;  612.700
1029.918;   31.457;  -13.100;  649.840
1030.468;   30.135;  -13.680;  564.780
1031.017;   30.541;  -13.770;  634.800
1031.566;   30.186;  -14.100;  608.900
1032.115;   31.719;  -11.770;  694.500
1032.664;   28.590;  -14.940;  596.480
1033.213;   30.433;  -13.370;  735.420
1033.762;   29.765;  -13.660;  635.620
1034.311;   29.508;  -13.650;  677.220
1034.860;   29.016;  -13.820;  691.000
1035.408;   28.681;  -12.860;  722.720
1035.957;   29.807;  -13.060;  719.540
1036.506;   26.404;  -14.510;  530.800
1037.055;   30.062;  -13.470;  844.320
1037.603;   28.201;  -14.800;  664.000
1038.152;   27.045;  -14.190;  534.760
1038.700;   27.031;  -11.810;  585.740
1039.249;   26.961;  -12.850;  681.220
1039.797;   27.063;  -14.610;  633.360
1040.345;   27.874;  -15.220;  705.420
1040.894;   26.435;  -13.480;  625.300
1041.442;   25.682;  -13.310;  632.200
1041.990;   25.388;  -14.510;  559.160
1042.538;   25.392;  -15.700;  536.180
1043.087;   26.029;  -13.910;  570.860
1043.635;   26.004;  -13.620;  670.500
1044.183;   25.573;  -14.230;  586.400
1044.731;   25.450;  -13.730;  576.000
1045.279;   24.580;  -13.970;  674.920
1045.827;   28.047;  -10.750;  892.400
1046.374;   23.705;  -15.230;  515.420
1046.922;   24.296;  -15.390;  590.580
1047.470;   25.661;  -12.320;  691.300
1048.018;   23.984;  -13.230;  647.960
1048.565;   25.979;  -13.390;  708.600
1049.113;   24.382;  -15.030;  557.000
1049.660;   23.707;  -12.540;  629.660
1050.208;   23.790;  -15.040;  675.640
1050.755;   22.910;  -14.680;  606.580
1051.303;   24.717;  -13.610;  686.820
1051.850;   23.991;  -14.340;  635.120
1052.397;   20.626;  -16.330;  473.960
1052.945;   22.371;  -15.710;  617.760
1053.492;   24.660;  -12.320;  741.840
1054.039;   23.301;  -13.730;  720.180
1054.586;   22.076;  -16.140;  557.240
1055.133;   22.734;  -14.020;  693.140
1055.680;   23.351;  -13.430;  646.620
1056.227;   22.296;  -14.570;  542.780
1056.774;   23.732;  -14.400;  794.980
1057.321;   21.351;  -14.230;  523.260
1057.868;   21.889;  -14.220;  651.320
1058.415;   20.820;  -14.060;  651.980
1058.961;   21.513;  -14.640;  678.940
1059.508;   21.245;  -13.970;  643.820
1060.055;   20.938;  -15.100;  581.780
1060.601;   21.426;  -12.180;  624.300
1061.148;   19.648;  -15.010;  616.820
1061.694;   20.096;  -14.750;  592.580
1062.241;   20.292;  -14.130;  596.320
1062.787;   20.263;  -14.770;  663.140
1063.334;   21.707;  -13.130;  808.560
1063.880;   20.870;  -14.420;  668.360
1064.426;   21.187;  -13.130;  706.820
1064.972;   18.845;  -13.960;  601.340
1065.518;   17.446;  -13.680;  566.640
1066.065;   20.048;  -15.720;  624.460
1066.611;   18.462;  -13.970;  598.800
1067.157;   19.209;  -13.920;  641.860
1067.703;   19.103;  -14.760;  668.480
1068.249;   19.055;  -14.490;  605.220
1068.794;   19.141;  -14.740;  626.880
1069.340;   18.507;  -13.220;  578.960
1069.886;   18.302;  -14.930;  590.700
1070.432;   17.681;  -14.700;  541.720
1070.977;   17.467;  -14.470;  601.080
1071.523;   17.911;  -14.330;  573.060
1072.068;   16.623;  -14.960;  582.000
1072.614;   17.096;  -16.220;  527.760
1073.160;   18.904;  -11.280;  687.040
1073.705;   16.743;  -15.990;  572.520
1074.250;   16.883;  -16.550;  559.900
1074.796;   18.180;  -14.600;  655.160
1075.341;   18.348;  -13.440;  664.100
1075.886;   17.093;  -14.450;  594.240
1076.431;   16.703;  -13.160;  649.880
1076.976;   16.645;  -14.710;  639.220
1077.521;   16.681;  -14.000;  583.080
1078.067;   15.378;  -14.470;  579.400
1078.612;   16.206;  -14.530;  661.620
1079.156;   15.638;  -15.660;  601.540
1079.701;   16.544;  -16.120;  693.260
1080.246;   16.224;  -12.960;  696.300
1080.791;   16.117;  -13.700;  625.020
1081.336;   16.077;  -15.540;  659.320
1081.880;   16.566;  -14.640;  649.680
1082.425;   15.137;  -14.220;  573.480
1082.970;   15.673;  -11.890;  717.040
1083.514;   15.296;  -13.820;  597.000
1084.059;   14.309;  -14.280;  586.720
1084.603;   14.068;  -12.890;  565.840
1085.147;   14.306;  -13.590;  645.220
1085.692;   15.507;  -14.050;  716.800
1086.236;   13.610;  -14.990;  503.140
1086.780;   15.789;  -12.640;  751.440
1087.325;   14.270;  -15.550;  654.620
1087.869;   14.215;  -14.980;  610.700
1088.413;   15.734;  -13.440;  705.040
1088.957;   12.652;  -12.170;  543.400
1089.501;   15.143;  -12.730;  766.640
1090.045;   15.038;  -14.650;  726.480
1090.589;   12.538;  -14.500;  569.920
1091.133;   14.258;  -12.320;  673.340
1091.676;   12.555;  -16.130;  591.940
1092.220;   12.359;  -13.930;  600.920
1092.764;   13.880;  -12.820;  706.960
1093.307;   14.128;  -11.700;  673.780
1093.851;   11.641;  -15.600;  556.540
1094.395;   13.147;  -13.920;  683.140
1094.938;   13.071;  -16.090;  632.520
1095.482;   12.321;  -13.820;  559.800
1096.025;   13.221;  -12.720;  710.880
1096.568;   13.842;  -12.100;  779.280
1097.112;   10.565;  -15.450;  508.180
1097.655;   12.945;  -14.310;  603.000
1098.198;   10.183;  -14.740;  600.180
1098.741;   11.034;  -15.550;  612.860
1099.285;   12.936;  -12.600;  657.300
1099.828;   10.048;  -15.050;  439.400
1100.371;   10.658;  -14.800;  608.160
1100.914;   11.653;  -16.480;  682.660
1101.457;   11.647;  -12.990;  679.900
1101.999;   10.251;  -14.110;  584.680
1102.542;   11.403;  -11.450;  641.440
1103.085;   11.066;  -13.350;  658.500
1103.628;   11.760;  -13.200;  762.060
1104.170;   10.180;  -12.310;  588.280
1104.713;   10.347;  -14.320;  646.700
1105.256;    9.628;  -16.110;  557.440
1105.798;    9.439;  -15.910;  499.980
1106.341;   10.894;  -12.200;  728.900
1106.883;    8.920;  -14.910;  521.340
1107.425;   10.265;  -14.960;  668.180
1107.968;    9.709;  -13.440;  612.380
1108.510;   11.184;  -14.010;  684.960
1109.052;    8.553;  -15.430;  612.620
1109.594;    9.245;  -15.290;  554.440
1110.136;   10.066;  -13.360;  643.220
1110.679;    8.434;  -13.820;  633.080
1111.221;    8.974;  -13.690;  604.460
1111.763;    8.658;  -14.890;  559.220
1112.304;    9.395;  -14.550;  547.140
1112.846;    9.694;  -12.760;  666.240
1113.388;   11.192;  -10.780;  942.180
1113.930;    9.166;  -12.690;  694.200
1114.472;    8.875;  -15.730;  606.540
1115.013;    7.558;  -14.620;  551.280
1115.555;    7.316;  -14.950;  587.100
1116.097;    7.074;  -16.460;  579.480
1116.638;    8.614;  -13.730;  684.600
1117.180;    8.063;  -13.810;  667.740
1117.721;    7.262;  -13.280;  568.580
1118.262;    8.736;  -15.080;  677.960
1118.804;    8.625;  -14.040;  637.340
1119.345;    7.693;  -15.430;  578.400
1119.886;    8.460;  -15.240;  704.040
1120.427;    7.239;  -15.820;  589.020
1120.969;    6.877;  -14.550;  597.920
1121.510;    6.597;  -14.030;  563.060
1122.051;    7.433;  -11.990;  723.580
1122.592;    6.402;  -16.490;  655.420
1123.133;    6.244;  -15.580;  547.940
1123.673;    7.933;  -12.850;  706.480
1124.214;    5.984;  -13.630;  612.460
1124.755;    7.269;  -14.830;  639.460
1125.296;    6.655;  -13.110;  627.320
1125.836;    7.664;  -11.320;  691.500
1126.377;    5.880;  -14.330;  599.660
1126.918;    7.139;  -12.800;  614.980
1127.458;    6.729;  -13.580;  622.220
1127.999;    6.786;  -10.330;  656.980
1128.539;    6.407;  -13.390;  694.240
1129.079;    4.922;  -16.420;  632.720
1129.620;    5.577;  -15.700;  558.100
1130.160;    4.407;  -14.790;  539.480
1130.700;    5.619;  -12.910;  640.840
1131.240;    5.826;  -15.610;  643.700
1131.781;    6.077;  -12.920;  619.680
1132.321;    5.683;  -15.300;  599.120
1132.861;    4.119;  -14.760;  564.200
1133.401;    4.718;  -15.470;  593.940
1133.941;    5.749;  -13.710;  626.280
1134.481;    4.274;  -11.820;  597.580
1135.020;    3.892;  -14.810;  609.160
1135.560;    5.453;  -13.660;  674.940
1136.100;    4.189;  -13.940;  501.160
1136.640;    4.120;  -15.410;  510.480
1137.179;    2.999;  -16.920;  537.960
1137.719;    5.029;  -16.430;  605.400
1138.258;    4.482;  -16.300;  587.360
1138.798;    5.413;  -13.710;  663.780
1139.337;    3.014;  -13.840;  482.840
1139.877;    4.729;  -16.140;  642.360
1140.416;    7.031;  -11.410;  878.060
1140.955;    3.276;  -12.820;  535.380
1141.494;    3.666;  -12.310;  669.280
1142.034;    3.913;  -16.280;  583.520
1142.573;    4.790;  -13.090;  646.280
1143.112;    3.414;  -13.770;  553.480
1143.651;    2.835;  -15.830;  536.480
1144.190;    4.067;  -15.010;  691.640
1144.729;    3.566;  -13.650;  607.420
1145.267;    3.584;  -13.670;  584.900
1145.806;    4.017;  -13.630;  637.040
1146.345;    3.230;  -14.160;  635.020
1146.884;    3.569;  -11.180;  622.500
1147.422;    2.587;  -15.890;  533.060
1147.961;    3.880;  -12.760;  708.460
1148.500;    3.167;  -15.220;  669.720
1149.038;    4.427;  -13.720;  632.500
1149.577;    3.813;  -13.250;  698.640
1150.115;    0.823;  -16.790;  452.280
1150.653;    2.289;  -15.810;  607.340
1151.192;    3.224;  -14.730;  552.920
1151.730;    2.958;  -13.660;  652.560
1152.268;    1.381;  -15.120;  589.520
1152.806;    2.357;  -15.580;  571.180
1153.344;    1.642;  -16.210;  577.640
1153.882;    2.637;  -12.810;  600.060
1154.421;    0.195;  -14.150;  470.620
1154.958;    1.437;  -15.360;  595.240
1155.496;    2.777;  -14.710;  645.280
1156.034;    2.564;  -13.640;  721.880
1156.572;    2.259;  -13.740;  667.060
1157.110;   -0.072;  -16.960;  473.940
1157.647;    2.855;  -11.940;  676.960
1158.185;    1.449;  -14.090;  564.320
1158.723;   -0.262;  -13.610;  509.200
1159.260;    2.157;  -14.760;  701.700
1159.798;    2.435;  -13.700;  658.160
1160.335;    1.253;  -13.820;  631.820

