gmr_left
Integration time [ms]:   3.882
Averaging Nr. [scans]: 1000
Smoothing Nr. [pixels]: 0
Data measured with spectrometer [name]: 7414430SP
Wave   ;Sample   ;Dark     ;Reference
[nm]   ;[counts] ;[counts] ;[counts] 

288.544;  130.173;   10.292;  793.890
289.143;  133.921;    4.564;  681.602
289.742;  133.884;    6.144;  828.814
290.341;  121.069;    4.396;  789.841
290.940;  111.254;    0.938;  730.702
291.538;  112.608;   -0.684;  881.108
292.137;  111.774;   -2.845;  792.581
292.736;  116.225;   -0.144;  975.101
293.335;  111.412;   -6.352;  735.086
293.934;  111.528;   -7.642;  781.677
294.532;  111.885;   -4.992; 1031.958
295.131;   97.645;   -5.478;  834.394
295.730;   98.021;   -6.549;  809.588
296.328;   96.066;   -9.558;  783.442
296.927;   96.098;   -8.118;  779.652
297.525;   97.330;   -6.908;  781.236
298.124;   87.779;   -9.195;  654.009
298.722;   92.430;   -8.198;  761.933
299.321;   91.454;   -8.817;  708.597
299.919;   88.550;   -7.716;  751.918
300.518;   84.448;  -10.745;  689.338
301.116;   85.506;   -9.647;  691.381
301.715;   86.888;  -10.828;  730.222
302.313;   86.050;   -6.087;  704.943
302.911;   80.986;   -6.824;  733.830
303.509;   86.156;   -8.807;  925.627
304.108;   83.077;   -8.198;  760.383
304.706;   83.729;   -6.218;  801.664
305.304;   77.362;   -7.185;  796.707
305.902;   83.642;   -8.568;  784.484
306.500;   78.843;   -7.737;  728.200
307.098;   77.483;   -6.026;  746.560
307.696;   75.044;   -7.176;  780.432
308.294;   76.645;   -8.656;  731.359
308.892;   78.053;   -6.838;  759.769
309.490;   73.758;   -2.596;  712.161
310.088;   72.038;   -4.485;  788.444
310.686;   77.078;   -3.907;  821.749
311.284;   73.057;   -2.806;  766.040
311.882;   70.806;   -2.845;  731.225
312.480;   67.100;   -3.274;  697.167
313.078;   69.273;   -3.645;  808.331
313.675;   71.190;   -4.997;  691.600
314.273;   66.116;   -0.894;  797.837
314.871;   64.484;   -2.854;  589.829
315.468;   62.491;   -3.644;  652.090
316.066;   66.320;   -3.947;  694.427
316.664;   58.200;   -1.824;  656.351
317.261;   63.858;    1.565;  910.128
317.859;   58.298;   -3.955;  768.735
318.456;   59.721;   -2.886;  830.096
319.054;   56.117;   -0.995;  787.828
319.651;   55.200;   -1.765;  759.928
320.249;   54.166;   -3.685;  810.188
320.846;   52.231;   -3.736;  714.286
321.443;   49.980;   -2.065;  832.135
322.041;   47.817;   -5.635;  812.315
322.638;   45.253;   -5.985;  701.456
323.235;   48.125;   -6.677;  665.683
323.833;   45.657;   -3.497;  740.354
324.430;   40.660;   -6.756;  615.900
325.027;   42.417;   -7.647;  876.855
325.624;   43.589;   -7.598;  644.532
326.221;   40.195;   -5.848;  689.717
326.818;   39.787;   -5.777;  818.332
327.415;   41.997;   -8.769;  748.828
328.012;   42.328;   -6.299;  690.585
328.609;   40.542;   -6.639;  731.389
329.206;   39.231;   -6.358;  778.621
329.803;   38.086;   -8.698;  737.841
330.400;   40.017;   -8.379;  704.260
330.997;   41.308;   -6.178;  817.147
331.594;   38.950;   -5.646;  788.185
332.191;   42.710;   -6.928;  728.722
332.787;   44.232;   -6.057;  844.463
333.384;   41.596;   -6.445;  763.093
333.981;   40.766;   -8.002;  815.687
334.578;   41.667;   -8.443;  708.378
335.174;   44.625;   -6.053;  731.469
335.771;   44.502;   -5.791;  836.456
336.367;   41.033;   -6.570;  710.631
336.964;   42.929;   -6.741;  793.266
337.561;   42.338;   -5.710;  731.112
338.157;   37.690;   -3.928;  911.916
338.754;   35.354;   -5.577;  796.589
339.350;   33.864;   -9.667;  722.493
339.946;   36.987;   -5.269;  773.135
340.543;   29.643;   -4.485;  846.136
341.139;   23.774;   -7.584;  720.836
341.735;   22.596;   -8.553;  772.593
342.332;   22.343;   -4.984;  691.472
342.928;   21.989;   -3.475;  795.394
343.524;   16.906;   -6.653;  761.684
344.120;   14.330;   -7.173;  738.562
344.716;   17.710;   -4.385;  723.717
345.313;   15.323;   -3.565;  795.342
345.909;   10.887;   -7.495;  627.336
346.505;   12.897;   -8.276;  740.247
347.101;   14.054;   -5.697;  827.864
347.697;   14.400;   -4.767;  785.398
348.293;    8.400;   -7.226;  627.244
348.889;    9.745;   -7.547;  745.914
349.485;    8.859;   -9.147;  688.205
350.081;   10.609;   -6.568;  772.592
350.676;    5.479;   -6.516;  691.606
351.272;    9.780;   -7.378;  809.530
351.868;    9.766;   -6.759;  780.497
352.464;    7.267;   -4.798;  723.932
353.059;    3.359;   -7.977;  646.017
353.655;    7.631;   -8.769;  777.063
354.251;    8.372;   -5.920;  759.845
354.846;    3.082;   -7.647;  740.646
355.442;    0.266;   -6.956;  753.071
356.038;    2.947;   -9.928;  751.708
356.633;    2.580;   -7.698;  728.594
357.229;    1.589;   -6.307;  724.757
357.824;   -0.110;   -7.647;  703.600
358.420;   -1.476;  -10.047;  679.726
359.015;   -1.012;   -7.458;  695.357
359.610;    0.611;   -5.748;  763.920
360.206;   -5.950;   -9.346;  603.240
360.801;   -3.193;  -11.268;  646.503
361.396;    0.043;   -8.789;  725.975
361.992;   -4.706;   -6.347;  668.220
362.587;   -6.993;   -6.476;  670.160
363.182;   -5.797;   -9.457;  689.631
363.777;   -4.558;   -7.147;  738.242
364.372;   -4.423;   -5.507;  737.314
364.967;   -8.785;   -6.386;  680.744
365.563;   -3.759;   -7.858;  815.567
366.158;   -7.488;   -8.517;  685.161
366.753;   -6.090;   -8.728;  649.263
367.348;   -7.587;   -7.677;  746.056
367.942;   -7.454;  -10.387;  697.298
368.537;   -8.693;   -7.187;  754.245
369.132;   -8.119;   -8.587;  703.428
369.727;  -12.503;   -8.606;  638.079
370.322;  -10.621;  -10.426;  580.186
370.917;  -10.316;   -5.776;  710.646
371.511;   -7.484;   -6.007;  861.834
372.106;  -11.596;   -6.686;  776.964
372.701;  -15.532;   -9.335;  585.988
373.296;   -7.813;   -6.777;  863.135
373.890;  -13.934;   -7.546;  647.840
374.485;  -15.258;   -8.755;  691.199
375.079;  -11.982;   -9.797;  738.685
375.674;  -10.221;   -6.327;  812.970
376.268;  -14.186;   -9.046;  691.759
376.863;  -20.620;   -7.993;  580.327
377.457;  -13.541;   -9.206;  662.490
378.052;  -15.404;   -5.345;  764.884
378.646;  -16.043;   -5.605;  741.167
379.240;  -16.052;   -6.825;  721.176
379.835;  -16.447;  -10.476;  636.978
380.429;  -17.669;   -8.676;  562.557
381.023;  -17.590;   -4.945;  779.205
381.617;  -19.450;   -8.094;  680.106
382.212;  -16.942;  -10.646;  685.303
382.806;  -14.865;   -8.136;  760.690
383.400;  -19.429;   -7.855;  672.281
383.994;  -20.470;   -8.125;  664.870
384.588;  -16.129;   -7.637;  697.701
385.182;  -14.321;   -7.458;  726.624
385.776;  -16.094;   -6.277;  706.875
386.370;  -19.956;   -7.485;  681.968
386.964;  -17.633;   -9.416;  684.155
387.558;  -16.608;   -8.518;  598.360
388.152;  -19.605;   -7.096;  681.959
388.745;  -17.373;   -7.656;  814.707
389.339;  -16.211;   -8.927;  747.642
389.933;  -15.108;   -9.538;  695.370
390.527;  -15.896;   -5.857;  859.029
391.120;  -22.600;   -9.455;  595.318
391.714;  -19.490;   -9.746;  711.633
392.308;  -15.761;   -7.857;  780.253
392.901;  -19.816;   -9.106;  642.460
393.495;  -21.315;  -10.365;  595.414
394.089;  -19.404;   -9.696;  760.452
394.682;  -20.096;   -7.016;  697.188
395.275;  -20.090;   -8.466;  719.927
395.869;  -21.265;   -8.985;  667.314
396.462;  -19.937;  -11.496;  616.609
397.056;  -15.870;   -7.838;  776.621
397.649;  -20.660;   -6.895;  731.575
398.242;  -18.202;   -5.017;  712.645
398.836;  -16.509;   -8.787;  766.408
399.429;  -18.350;   -8.967;  631.041
400.022;  -21.620;   -8.815;  665.902
400.615;  -18.726;   -6.276;  805.609
401.208;  -16.572;   -8.407;  691.451
401.802;  -18.776;   -7.296;  699.329
402.395;  -20.811;   -7.585;  683.502
402.988;  -21.832;   -8.015;  696.627
403.581;  -18.221;   -9.577;  646.878
404.174;  -15.525;   -7.588;  686.568
404.767;  -18.442;   -7.906;  638.583
405.360;  -21.242;   -7.875;  621.445
405.953;  -15.038;   -8.127;  759.034
406.545;  -14.521;   -7.198;  725.342
407.138;  -18.770;   -8.916;  618.350
407.731;  -18.147;   -9.767;  613.303
408.324;  -13.479;  -10.659;  660.554
408.917;  -14.487;   -8.068;  681.864
409.509;  -16.284;   -9.837;  740.396
410.102;  -18.951;   -8.146;  643.948
410.695;  -12.704;   -7.969;  665.758
411.287;  -12.631;   -8.579;  599.821
411.880;  -13.813;   -6.968;  585.421
412.472;  -16.892;   -9.487;  613.092
413.065;  -14.688;  -10.338;  629.408
413.657;  -12.308;   -9.169;  576.678
414.250;  -11.862;  -10.119;  646.681
414.842;  -14.238;   -9.938;  676.353
415.434;  -11.544;  -10.409;  570.463
416.027;   -6.936;   -9.591;  652.196
416.619;   -9.695;   -7.379;  713.400
417.211;  -10.762;   -9.159;  599.352
417.804;   -5.744;   -9.191;  628.499
418.396;   -9.842;   -8.159;  607.643
418.988;   -7.522;   -6.960;  659.238
419.580;  -11.210;  -11.389;  568.276
420.172;   -8.986;  -13.460;  536.196
420.764;   -3.721;  -10.701;  672.482
421.356;   -5.773;   -8.961;  636.898
421.948;   -6.634;   -9.770;  677.661
422.540;   -1.636;   -8.832;  680.027
423.132;   -2.023;   -8.153;  600.641
423.724;   -5.314;   -8.481;  561.267
424.316;   -3.880;   -9.261;  621.345
424.908;    0.372;   -9.643;  591.517
425.500;    1.548;   -8.663;  647.978
426.092;    1.666;   -8.503;  648.268
426.683;    0.475;  -10.522;  684.836
427.275;    3.379;  -11.734;  641.471
427.867;    5.823;  -10.264;  668.948
428.458;    5.658;   -7.644;  732.344
429.050;    5.226;   -7.853;  680.749
429.642;    5.955;   -8.904;  743.124
430.233;    6.900;  -10.795;  569.356
430.825;    7.740;   -7.665;  724.809
431.416;    5.584;   -8.843;  698.241
432.008;    9.628;   -9.885;  651.723
432.599;   10.702;   -9.966;  656.073
433.190;    7.006;   -9.164;  637.670
433.782;    6.395;   -8.584;  590.395
434.373;   14.211;   -8.296;  884.765
434.964;   12.506;   -9.896;  602.920
435.556;   10.260;   -8.255;  634.537
436.147;   13.695;   -8.075;  758.490
436.738;   13.017;   -9.716;  701.099
437.329;   18.458;   -7.318;  721.723
437.920;   11.180;   -6.694;  666.688
438.511;   10.806;   -9.644;  564.526
439.103;   18.264;   -9.427;  623.998
439.694;   20.078;  -10.748;  681.583
440.285;   22.255;   -7.997;  764.432
440.876;   19.897;  -10.046;  845.738
441.466;   18.893;  -13.467;  575.162
442.057;   24.699;   -9.329;  665.814
442.648;   22.342;   -7.707;  746.255
443.239;   20.933;   -9.017;  620.477
443.830;   25.413;  -10.279;  704.958
444.421;   28.049;  -12.630;  655.474
445.011;   24.673;   -8.697;  693.619
445.602;   23.250;   -7.787;  743.126
446.193;   25.817;  -13.329;  488.117
446.783;   30.940;   -9.171;  640.397
447.374;   26.150;   -7.457;  692.759
447.964;   26.796;   -9.277;  713.770
448.555;   35.762;   -9.041;  822.742
449.145;   32.120;   -8.969;  662.853
449.736;   33.119;   -6.809;  803.179
450.326;   32.340;   -7.229;  713.626
450.917;   36.992;  -11.391;  675.324
451.507;   36.671;   -9.501;  600.661
452.097;   37.365;   -8.460;  746.267
452.688;   39.394;  -10.080;  742.160
453.278;   38.513;  -12.861;  566.840
453.868;   43.150;   -8.372;  793.550
454.458;   40.417;   -8.131;  651.141
455.048;   41.829;   -8.520;  711.783
455.639;   42.278;  -13.632;  567.096
456.229;   46.264;  -10.143;  710.694
456.819;   48.128;   -9.163;  751.158
457.409;   48.512;   -8.652;  773.993
457.999;   51.724;   -9.933;  737.505
458.589;   51.706;  -10.363;  686.606
459.179;   51.700;  -10.633;  717.658
459.769;   48.769;  -12.442;  627.099
460.358;   54.356;   -9.844;  797.262
460.948;   54.378;   -9.924;  689.503
461.538;   55.636;  -10.484;  660.677
462.128;   53.850;  -10.703;  664.934
462.717;   60.830;  -11.486;  710.326
463.307;   63.983;  -10.767;  705.846
463.897;   59.721;   -8.814;  656.942
464.486;   59.212;   -8.182;  837.128
465.076;   63.081;   -9.985;  733.776
465.666;   67.826;  -10.447;  652.900
466.255;   64.706;   -7.754;  785.651
466.845;   63.466;  -10.884;  666.749
467.434;   66.916;  -12.525;  725.873
468.023;   67.992;  -11.456;  658.357
468.613;   65.443;   -9.173;  713.946
469.202;   69.645;   -9.306;  646.507
469.791;   73.992;   -8.917;  737.811
470.381;   76.388;   -9.657;  742.813
470.970;   75.899;   -9.947;  711.099
471.559;   76.218;   -9.256;  733.291
472.148;   77.988;  -13.397;  675.737
472.738;   81.625;   -9.928;  765.466
473.327;   81.411;  -10.897;  637.529
473.916;   79.789;   -8.526;  737.446
474.505;   85.299;  -11.078;  751.703
475.094;   89.081;   -9.559;  806.570
475.683;   87.819;   -8.838;  797.699
476.272;   87.591;  -10.198;  730.632
476.861;   91.465;  -11.489;  706.754
477.449;   97.401;  -10.721;  728.487
478.038;   92.760;   -9.818;  692.513
478.627;   93.574;   -9.887;  714.852
479.216;  100.040;  -10.030;  769.441
479.805;  103.720;   -9.401;  783.375
480.393;  103.666;   -5.739; 1008.945
480.982;  101.904;   -7.838;  874.501
481.571;  108.417;   -9.111;  858.333
482.159;  109.409;  -10.601;  705.386
482.748;  109.335;   -8.500;  821.385
483.336;  113.717;   -9.241;  858.209
483.925;  114.775;  -10.440;  774.373
484.513;  122.105;  -11.063;  758.962
485.102;  117.684;   -9.540;  810.965
485.690;  127.059;   -6.742; 1011.050
486.278;  129.730;   -8.442;  979.329
486.867;  129.819;  -10.472;  809.662
487.455;  132.617;   -8.811;  898.229
488.043;  132.105;  -10.721;  748.361
488.631;  142.732;  -10.393; 1005.079
489.220;  145.990;  -10.843;  908.626
489.808;  147.102;  -10.572;  741.415
490.396;  156.575;  -10.482;  914.645
490.984;  162.220;  -11.542;  830.161
491.572;  173.122;   -8.463;  940.315
492.160;  181.095;   -8.491;  919.081
492.748;  192.848;   -9.681;  884.341
493.336;  217.218;  -10.493; 1019.693
493.924;  245.515;   -9.354;  958.077
494.512;  280.056;   -9.132; 1066.638
495.100;  329.305;   -9.001; 1103.280
495.687;  394.194;  -11.924; 1206.373
496.275;  484.257;  -11.193; 1150.796
496.863;  568.248;   -9.241; 1281.171
497.451;  675.380;  -11.341; 1386.805
498.038;  813.472;  -11.364; 1556.729
498.626;  943.122;   -8.104; 1741.407
499.214; 1132.359;   -8.842; 2016.609
499.801; 1417.754;  -10.112; 2220.633
500.389; 1670.304;  -11.953; 2312.494
500.976; 1896.264;  -10.023; 2744.849
501.564; 2210.983;   -8.662; 3148.565
502.151; 2580.192;  -10.531; 3515.999
502.738; 2997.145;  -13.853; 3971.274
503.326; 3592.765;  -10.794; 4403.796
503.913; 4059.849;   -8.663; 5161.749
504.500; 4793.317;  -10.172; 5986.420
505.088; 5833.669;  -13.472; 6381.201
505.675; 6435.678;  -10.924; 6925.547
506.262; 6429.720;   -8.551; 7619.060
506.849; 6856.058;  -10.523; 8733.969
507.436; 7762.849;  -10.834; 9790.121
508.023; 8223.251;   -9.093; 9985.472
508.610; 8417.925;  -10.073;10434.618
509.197; 9458.476;   -9.500;11198.435
509.784;11062.468;  -13.242;12391.194
510.371;11970.291;  -10.964;13603.713
510.958;12342.536;   -9.772;14426.586
511.545;12654.433;   -7.842;15243.775
512.132;12561.086;  -12.184;15945.876
512.719;13478.301;   -9.733;16340.369
513.305;16127.784;   -9.172;18011.766
513.892;17140.623;   -9.581;19754.971
514.479;17331.076;  -10.253;20967.805
515.066;17184.859;   -8.183;22299.793
515.652;17411.031;   -9.253;22908.660
516.239;19886.174;   -9.412;23798.875
516.825;23227.994;  -11.153;25567.275
517.412;24933.330;  -10.263;28154.959
517.998;25688.516;   -8.802;28344.111
518.585;26686.432;  -10.401;27134.219
519.171;26093.809;  -12.744;27268.576
519.758;26501.322;  -11.793;28964.129
520.344;29407.355;   -8.912;30664.494
520.930;32913.988;  -10.901;32550.605
521.516;33161.609;  -12.034;35422.895
522.103;33599.125;  -10.473;38280.004
522.689;35099.094;   -8.311;37835.117
523.275;37117.727;  -10.691;37288.613
523.861;38988.777;  -11.193;37281.395
524.447;36626.512;  -11.484;37846.949
525.033;36600.379;   -7.702;38321.949
525.619;36810.199;  -11.241;38579.285
526.205;36943.805;  -12.152;40622.875
526.791;38058.879;  -11.423;42258.836
527.377;38198.398;   -7.981;42966.902
527.963;38846.801;   -9.450;42018.949
528.549;38889.109;  -11.351;42476.828
529.135;38472.258;  -10.202;41854.852
529.721;40120.051;   -8.672;41237.711
530.306;40183.480;   -9.111;41259.445
530.892;41262.223;  -11.252;41506.047
531.478;44604.785;  -10.432;43559.613
532.063;46620.922;  -10.721;47695.563
532.649;46981.574;   -7.450;50808.324
533.235;48252.137;  -11.811;51787.500
533.820;47230.277;   -9.383;52145.035
534.406;44892.816;   -9.400;51133.488
534.991;43729.227;   -8.861;49996.805
535.576;44967.934;  -10.612;48882.852
536.162;43170.328;   -7.322;46942.285
536.747;41928.172;   -9.360;45711.746
537.333;42770.004;  -10.450;48510.180
537.918;45469.805;  -12.610;50439.891
538.503;46131.449;  -12.132;50863.711
539.088;43143.637;  -10.831;50906.922
539.673;41664.398;  -11.220;52621.965
540.259;45903.641;  -11.481;52368.094
540.844;46863.145;  -11.462;50879.109
541.429;47401.781;   -7.869;52077.777
542.014;46008.617;  -11.859;52716.695
542.599;44517.941;  -11.061;52363.281
543.184;45475.055;  -12.300;53187.137
543.769;46458.902;   -9.369;54697.605
544.354;47755.117;  -12.020;53913.914
544.938;43650.750;  -10.350;49680.164
545.523;39737.652;  -10.841;47386.277
546.108;42211.363;   -8.579;49151.949
546.693;44718.535;   -8.818;51384.637
547.278;46309.262;  -11.331;51853.254
547.862;45475.793;  -10.292;51173.750
548.447;42707.871;   -8.349;51691.395
549.031;41915.184;  -10.838;52456.703
549.616;43442.203;  -11.681;52714.516
550.201;45637.109;  -11.140;52414.598
550.785;43003.418;   -8.649;52355.059
551.370;38758.023;  -11.889;54589.453
551.954;36912.113;  -11.239;58267.348
552.538;39967.129;   -8.850;59062.176
553.123;46772.047;  -10.829;58115.285
553.707;51541.418;   -8.887;56556.285
554.291;50285.934;  -10.430;56201.668
554.876;48328.246;   -9.799;55335.762
555.460;45754.410;  -10.018;54155.703
556.044;44420.988;   -7.307;53721.484
556.628;47807.707;  -12.229;53731.016
557.212;48901.207;   -9.820;54312.531
557.796;46818.219;   -9.109;53797.773
558.380;43471.063;   -9.707;56145.984
558.964;44034.922;  -10.980;57277.930
559.548;47692.484;  -12.010;56459.641
560.132;48475.668;   -7.928;54434.543
560.716;50801.660;  -10.247;54800.617
561.300;51791.574;  -11.250;57606.945
561.884;50137.949;  -10.568;58972.445
562.467;50090.664;   -9.727;57327.570
563.051;47499.566;  -11.847;54962.434
563.635;45930.227;  -10.747;52594.473
564.219;44690.422;  -13.108;50610.410
564.802;41835.996;  -11.417;49551.180
565.386;39682.410;  -10.457;48370.953
565.969;41764.863;   -8.959;48178.871
566.553;41795.680;  -10.328;49957.305
567.136;42156.617;  -10.257;50369.594
567.720;42473.152;  -10.186;49492.004
568.303;41155.324;  -10.027;50616.352
568.887;41101.777;  -10.397;50727.148
569.470;42611.941;   -8.185;51698.379
570.053;42146.266;  -11.596;52122.078
570.637;41017.711;  -11.378;52536.438
571.220;41352.453;   -9.138;51186.098
571.803;40299.449;   -7.675;51032.762
572.386;37513.766;   -8.976;49609.887
572.969;37953.457;  -12.477;48285.926
573.552;38804.074;   -9.767;47624.285
574.135;38180.617;   -8.175;45498.641
574.718;33474.285;  -11.096;41970.434
575.301;32422.400;  -11.966;41447.137
575.884;31370.516;  -12.836;40923.836
576.467;36623.891;   -9.116;45267.723
577.050;39087.707;  -10.536;48175.543
577.633;39582.898;  -11.027;47729.328
578.216;38065.758;   -9.946;47579.793
578.799;36382.770;   -9.645;47820.996
579.381;36617.938;   -9.446;48115.551
579.964;37537.078;  -12.217;47333.766
580.547;38326.738;  -10.586;46668.969
581.129;37769.441;   -8.374;44466.141
581.712;35949.242;  -10.434;44164.922
582.294;35073.148;  -10.896;46477.855
582.877;36012.578;   -8.906;48244.254
583.459;37606.484;   -9.994;47437.895
584.042;37520.332;  -10.084;46943.219
584.624;36217.559;  -13.534;46792.227
585.206;34264.078;  -12.716;46557.250
585.789;34799.840;  -11.614;45793.773
586.371;35892.445;  -10.203;43836.391
586.953;34642.543;  -10.314;42972.492
587.536;32811.965;   -9.776;42487.211
588.118;33394.512;   -9.821;42086.414
588.700;34502.785;  -10.073;43389.930
589.282;35962.762;  -12.395;43646.039
589.864;34120.301;  -11.514;43438.109
590.446;34182.332;  -10.803;43151.926
591.028;35699.352;  -11.043;42781.867
591.610;36115.172;  -13.244;42839.098
592.192;32656.244;  -11.095;42820.402
592.774;30010.688;  -10.823;40724.277
593.356;29184.721;  -11.052;39874.789
593.937;31808.137;  -11.664;39980.648
594.519;34854.586;  -10.454;42069.633
595.101;35861.531;  -10.322;42976.031
595.683;34541.758;  -10.042;44084.441
596.264;32657.518;  -14.334;43478.797
596.846;32688.004;  -10.863;43803.672
597.427;33496.465;   -9.901;42986.934
598.009;34189.121;  -10.911;42832.219
598.591;35562.051;  -10.483;42580.086
599.172;34282.359;   -9.663;43061.805
599.753;31729.723;  -10.631;41691.469
600.335;30680.174;   -9.371;40692.520
600.916;31881.006;  -13.992;39982.422
601.498;33622.969;   -8.352;40318.617
602.079;31900.172;   -8.411;40670.609
602.660;33147.746;  -10.841;41450.898
603.241;35778.859;  -12.963;41137.738
603.823;34992.992;  -11.523;38868.797
604.404;32746.645;  -11.881;38182.785
604.985;32134.627;  -11.721;38078.047
605.566;33507.844;   -9.293;38056.633
606.147;33637.504;  -10.940;37020.418
606.728;32191.451;  -11.840;37883.359
607.309;30972.342;  -11.781;38748.273
607.890;31365.424;  -11.262;38850.230
608.471;31040.855;  -10.111;37457.918
609.051;30810.309;   -7.709;36066.457
609.632;31751.146;  -12.409;35991.074
610.213;31161.600;  -10.811;37402.641
610.794;30184.658;  -11.630;38383.363
611.374;31345.604;   -8.030;40562.387
611.955;32595.715;  -10.809;38533.727
612.536;34167.105;  -10.531;36951.789
613.116;34741.363;  -12.820;37197.891
613.697;33475.293;  -11.419;38411.125
614.277;32732.779;   -9.768;38673.938
614.858;33365.543;  -10.251;37075.863
615.438;30179.320;  -11.981;35092.906
616.019;27265.834;   -8.978;33666.301
616.599;29903.449;  -12.219;34189.023
617.179;33508.004;  -14.170;36952.047
617.760;34859.633;   -9.211;39582.574
618.340;34971.281;   -9.018;38943.977
618.920;33852.188;   -9.249;37594.156
619.500;32770.816;  -12.728;37866.938
620.080;34435.629;  -12.939;37869.043
620.660;34104.590;  -11.586;36868.617
621.241;32770.512;  -11.538;36352.309
621.821;33392.051;  -11.398;35459.520
622.401;33983.879;  -10.179;35207.414
622.980;35022.594;  -11.587;35980.422
623.560;34336.035;  -12.888;37351.328
624.140;31984.744;  -13.149;34388.582
624.720;27237.805;   -9.928;32368.764
625.300;26474.949;  -10.869;32638.629
625.880;31210.135;   -8.617;34599.035
626.459;36376.523;  -12.138;36831.738
627.039;38338.008;  -12.267;38299.098
627.619;37843.078;   -7.476;38289.574
628.198;38393.492;  -11.347;37220.695
628.778;37982.566;  -11.678;37632.563
629.357;35687.234;  -12.438;38003.012
629.937;33305.641;   -9.576;38402.039
630.516;32294.682;  -11.096;37868.801
631.096;31731.178;  -11.828;35760.410
631.675;31591.178;  -11.565;35225.219
632.254;31320.459;  -11.845;35130.289
632.834;32004.691;  -11.545;35794.570
633.413;32881.168;  -10.887;35788.922
633.992;34878.371;  -10.175;34532.863
634.571;34246.137;   -9.704;33590.113
635.151;31910.438;  -10.815;34943.863
635.730;31177.344;  -11.617;35352.523
636.309;29869.977;  -10.836;35366.605
636.888;30334.152;   -9.755;36165.637
637.467;31296.055;  -11.684;37515.902
638.046;33100.453;  -11.987;39288.695
638.625;34379.875;  -10.455;38279.699
639.204;34217.219;  -11.234;37741.598
639.782;31705.227;  -12.023;38364.551
640.361;29238.895;  -11.506;36740.621
640.940;28886.262;  -12.316;34950.082
641.519;30722.799;  -11.616;34137.398
642.097;34447.484;   -9.266;35654.258
642.676;35550.781;  -12.936;35637.957
643.255;34272.840;   -9.966;36567.074
643.833;33456.070;   -8.916;37809.434
644.412;34453.688;  -10.936;37337.293
644.990;37342.512;  -12.176;37018.531
645.569;38379.094;  -12.246;36518.469
646.147;37647.801;  -12.107;36186.430
646.726;36279.855;  -12.937;36267.688
647.304;37708.926;  -12.547;36647.625
647.882;38774.570;  -12.597;39286.742
648.461;37227.953;   -9.427;39157.703
649.039;34961.336;   -8.937;35412.883
649.617;32628.789;  -11.067;34744.918
650.195;33070.074;  -10.657;35403.098
650.773;32820.004;  -10.097;35053.797
651.352;30475.514;  -11.887;33756.816
651.930;26073.703;  -13.557;31868.773
652.508;22756.445;  -11.767;33121.551
653.086;23910.102;  -10.777;33564.793
653.663;27661.393;  -12.067;34054.668
654.241;30554.758;  -14.918;35693.309
654.819;32147.391;  -11.788;36422.906
655.397;31676.252;  -11.268;38213.484
655.975;32730.529;  -11.738;39507.625
656.553;32032.453;  -11.018;39498.223
657.130;30800.486;  -12.848;40395.480
657.708;29984.387;  -10.098;39242.020
658.286;30072.531;  -11.678;38920.020
658.863;32459.492;  -11.498;40202.898
659.441;35616.426;  -11.008;39677.938
660.018;36615.332;  -11.048;40413.355
660.596;36503.004;  -12.058;39931.414
661.173;35584.391;  -14.158;39604.531
661.750;35122.883;  -12.298;39700.070
662.328;34118.336;  -10.699;39292.809
662.905;32055.838;  -12.119;38235.648
663.482;27003.723;  -11.829;36212.305
664.060;25773.055;  -11.009;35944.945
664.637;28570.084;  -10.369;35170.785
665.214;29286.037;  -10.459;34197.523
665.791;28116.133;  -12.599;34549.520
666.368;28107.430;  -12.919;35118.578
666.945;30025.586;  -10.699;36019.418
667.522;31427.027;  -11.359;36048.438
668.099;31854.164;  -13.529;36243.914
668.676;31996.672;  -10.229;35958.875
669.253;32062.602;   -9.279;37384.730
669.830;30700.096;  -11.370;36779.629
670.407;30235.648;  -10.950;35231.289
670.984;31335.549;  -12.850;35544.270
671.560;30764.604;   -8.440;35466.867
672.137;29381.117;  -13.520;34280.863
672.714;29060.828;  -13.620;34632.863
673.290;30070.152;  -10.450;35135.422
673.867;29818.170;  -10.960;36114.480
674.443;28671.742;  -13.300;36152.859
675.020;29398.904;  -12.370;35327.238
675.596;30286.980;  -11.250;35795.176
676.173;30666.465;  -11.080;35430.355
676.749;30523.105;  -13.220;33549.516
677.326;32882.996;  -13.000;32210.012
677.902;34963.684;  -12.701;32068.871
678.478;35399.570;  -12.801;32583.891
679.054;34830.645;   -8.601;32088.928
679.631;34976.066;  -12.631;30978.848
680.207;34243.434;   -9.451;33160.887
680.783;32882.391;  -11.701;35570.363
681.359;32487.260;  -12.701;36125.184
681.935;32292.900;  -13.271;35240.922
682.511;31517.973;  -10.791;34429.961
683.087;31516.770;  -10.791;34463.680
683.663;31593.066;   -8.121;34648.898
684.239;33267.586;  -13.261;34546.457
684.815;33271.113;  -10.581;35586.375
685.390;30164.654;   -9.961;35821.895
685.966;28998.703;  -11.182;35085.871
686.542;28414.289;  -13.512;34198.230
687.118;28239.100;  -11.472;32847.707
687.693;28238.766;  -10.152;32794.027
688.269;29031.324;  -14.442;33072.367
688.844;30761.580;  -11.852;33141.664
689.420;29439.396;  -13.942;33965.742
689.995;28408.018;   -9.702;34655.523
690.571;28398.531;  -11.312;33576.742
691.146;27669.795;  -14.332;32657.219
691.722;28110.998;  -11.192;32526.979
692.297;30773.543;  -10.962;33014.617
692.872;30423.986;  -11.082;34012.254
693.448;29112.832;  -14.732;34237.434
694.023;28746.691;  -12.363;34142.672
694.598;28903.629;  -12.393;34132.031
695.173;27872.070;  -11.023;34205.250
695.748;27171.090;  -12.743;32882.488
696.323;28474.598;  -11.103;32864.906
696.898;29558.262;   -8.123;33170.004
697.473;29282.178;  -12.603;32432.984
698.048;29464.541;  -12.553;31649.303
698.623;31201.799;  -12.573;30778.141
699.198;34982.699;  -12.743;31140.119
699.773;33107.414;  -12.843;31764.299
700.348;31626.568;  -16.683;31780.816
700.922;31853.100;  -11.403;32046.375
701.497;32339.150;  -11.253;32603.574
702.072;32670.824;  -10.044;34799.871
702.646;32576.449;  -13.054;35793.172
703.221;31166.777;  -11.414;35201.590
703.795;31034.313;  -10.644;34764.527
704.370;32612.652;  -13.484;34307.367
704.944;32863.777;  -12.144;33509.887
705.519;31991.750;  -12.024;31388.584
706.093;30796.885;  -11.234;31340.104
706.668;28924.336;   -9.874;32630.281
707.242;27876.799;  -12.404;32728.779
707.816;28068.986;  -10.644;32947.238
708.390;27352.990;  -11.174;33277.855
708.965;27156.264;  -10.324;33834.336
709.539;27137.332;  -12.014;33709.273
710.113;27422.715;  -12.295;33044.313
710.687;28617.787;  -10.965;31953.992
711.261;29594.855;  -13.685;30505.949
711.835;29108.471;  -15.335;30262.369
712.409;28461.037;  -13.785;31254.447
712.983;28655.613;  -10.525;32754.986
713.557;29963.678;  -13.175;34018.824
714.131;31191.232;  -13.245;34579.625
714.704;33175.941;  -13.175;33890.262
715.278;35822.965;  -11.545;33531.102
715.852;35587.785;  -10.975;33601.660
716.425;33758.105;  -10.075;33515.117
716.999;32752.064;  -12.185;33185.555
717.573;32954.496;   -9.685;33905.996
718.146;34959.480;  -10.516;35199.293
718.720;32340.467;  -12.106;35060.551
719.293;30470.404;  -12.386;34973.230
719.867;33868.227;  -12.456;36394.449
720.440;34656.238;  -10.686;36663.008
721.013;34714.582;  -12.596;35102.426
721.587;34642.059;  -13.956;33985.266
722.160;34244.863;   -9.806;33524.965
722.733;34090.711;  -11.676;32987.043
723.306;33170.719;  -14.276;33066.301
723.880;32736.740;  -12.126;33399.500
724.453;34194.582;  -10.156;33468.297
725.026;32885.184;  -12.956;33816.637
725.599;30429.914;  -11.676;32797.996
726.172;28770.365;  -12.337;33187.434
726.745;29301.385;  -11.277;35136.613
727.318;29627.830;  -11.927;35751.730
727.891;28653.225;  -13.607;35890.430
728.463;28617.102;  -11.327;34822.090
729.036;27403.551;  -11.917;32895.086
729.609;27060.051;  -12.697;31823.225
730.182;27549.322;  -11.787;31445.283
730.754;27938.855;  -12.957;32373.223
731.327;28985.139;  -11.017;33676.820
731.900;28029.729;  -12.797;33417.000
732.472;26301.750;  -10.677;31978.498
733.045;25494.203;  -12.797;30368.777
733.617;26541.340;  -13.908;30574.215
734.190;26795.793;  -12.258;31280.975
734.762;27380.418;  -13.438;31674.412
735.334;27873.686;  -11.758;31247.291
735.907;27590.279;  -11.158;29876.211
736.479;29089.563;  -11.258;29808.488
737.051;32036.547;  -10.918;30233.547
737.623;33387.176;  -11.038;31469.086
738.195;33527.793;  -12.188;31784.225
738.768;29732.074;  -11.378;32120.523
739.340;27836.986;  -12.598;32094.342
739.912;29771.770;  -11.568;31312.680
740.484;31060.061;   -9.348;31946.238
741.056;30245.889;  -12.628;32984.059
741.628;29367.521;  -13.349;33897.715
742.199;29294.020;  -11.309;33213.016
742.771;28098.982;  -12.699;31369.113
743.343;28840.699;  -11.919;31865.473
743.915;29256.861;  -11.679;32388.631
744.487;28474.826;  -12.249;31079.568
745.058;27071.654;  -11.119;30570.107
745.630;25671.393;   -9.439;29970.127
746.201;26137.895;  -11.949;29186.766
746.773;27085.516;  -12.639;28805.723
747.344;26710.775;  -11.039;29591.223
747.916;25456.023;  -12.549;31412.201
748.487;24201.988;  -12.659;32194.898
749.059;22957.580;  -13.059;32533.719
749.630;24529.492;  -12.080;32158.518
750.201;25089.113;  -13.100;30855.395
750.773;24378.670;  -15.310;28622.555
751.344;23482.742;  -12.240;28405.732
751.915;22565.197;  -11.960;28461.551
752.486;21513.885;  -13.200;27842.850
753.057;21145.883;  -15.230;27845.008
753.628;21765.977;  -13.130;27728.107
754.199;22244.043;  -12.720;27381.086
754.770;21865.990;  -10.680;25882.203
755.341;21745.732;  -11.010;25886.184
755.912;21412.699;  -12.990;26050.861
756.483;20155.803;  -11.110;26798.779
757.054;19481.758;  -12.190;27048.238
757.625;20043.822;  -13.981;26294.838
758.195;19835.012;  -11.041;26142.076
758.766;20316.756;  -11.861;26392.234
759.337;21038.422;  -11.461;26334.594
759.907;22168.738;  -15.001;27579.652
760.478;22166.887;   -9.681;28352.770
761.048;21495.213;  -12.421;27325.088
761.619;21202.521;  -11.761;26460.428
762.189;19753.164;  -12.391;26029.826
762.760;18490.449;  -10.201;26430.145
763.330;18381.689;  -10.811;26670.902
763.900;20673.445;  -10.261;26603.021
764.471;21941.889;  -13.061;25542.740
765.041;20246.084;  -11.051;24358.459
765.611;19601.898;  -11.032;23991.297
766.181;19124.033;  -10.532;24470.236
766.751;18993.635;  -13.502;24845.975
767.321;19066.533;  -11.392;24533.633
767.891;19224.473;  -11.522;24916.492
768.461;19678.793;  -13.672;24776.771
769.031;19457.426;  -14.652;24757.988
769.601;18941.539;  -10.182;24181.088
770.171;17879.490;  -11.752;23670.387
770.741;15829.789;  -12.272;22960.045
771.311;15005.907;  -13.112;22917.523
771.880;15289.301;  -14.122;23562.941
772.450;16196.531;  -11.782;24216.500
773.020;18485.984;  -12.642;24140.398
773.589;18909.078;  -13.043;24414.857
774.159;16943.525;  -11.783;23858.717
774.729;15576.405;  -13.473;22942.135
775.298;16029.599;  -14.523;22324.033
775.867;16823.648;  -12.013;21140.313
776.437;16291.271;  -12.113;20838.092
777.006;15060.607;  -13.543;20599.510
777.576;13928.914;  -12.523;20508.809
778.145;13097.418;  -12.173;20732.947
778.714;13726.955;  -12.153;21062.465
779.283;14199.568;  -11.833;20949.664
779.853;15141.011;  -13.483;20508.623
780.422;16087.153;  -12.933;20649.082
780.991;15641.549;  -13.173;21527.520
781.560;13732.928;  -10.224;22632.658
782.129;12687.892;  -12.684;23048.277
782.698;13631.737;  -11.284;23438.555
783.267;14902.504;  -11.684;23267.734
783.836;14520.188;  -10.974;22415.133
784.404;13201.674;  -13.534;20443.152
784.973;12853.479;  -16.734;19699.150
785.542;12744.459;  -12.594;19763.828
786.111;12318.557;  -11.644;20341.408
786.679;12512.803;  -11.384;20207.967
787.248;13219.671;  -12.014;19516.465
787.817;12237.543;  -12.804;18900.363
788.385;11077.095;  -11.994;17879.121
788.954;11296.504;  -12.564;17658.301
789.522;12699.305;  -12.225;17788.879
790.090;13139.137;  -13.775;18118.277
790.659;12364.997;  -12.485;18338.736
791.227;11599.961;  -12.295;18508.615
791.795;11543.478;  -13.415;17898.254
792.364;10998.476;  -12.995;17295.133
792.932;10647.821;   -8.365;16822.051
793.500;10894.163;  -11.925;17040.148
794.068;11365.764;  -13.245;17179.787
794.636;11650.153;  -13.815;16664.246
795.204;10969.631;  -13.375;16524.545
795.772;10544.625;  -12.125;17274.564
796.340;10721.880;  -13.855;17891.002
796.908;11116.980;  -13.456;17648.561
797.476;10770.613;  -13.116;17064.080
798.044;10008.601;  -13.226;16672.777
798.612;10356.792;  -11.236;17023.996
799.180;11420.205;  -10.476;16561.615
799.747;11542.354;  -11.746;15962.773
800.315;10544.881;  -12.366;15296.992
800.883; 9521.199;  -14.616;14801.771
801.450; 9075.555;  -11.996;14534.430
802.018; 9813.649;  -11.206;14173.248
802.585; 9778.649;  -12.466;14029.547
803.153; 9022.085;  -12.846;13836.846
803.720; 8738.480;  -12.136;13567.324
804.287; 8443.571;  -10.966;13360.622
804.855; 8398.326;   -9.797;13681.981
805.422; 8306.321;  -13.037;13536.560
805.989; 8082.446;  -12.697;13355.958
806.556; 8199.661;  -11.737;13747.896
807.124; 8523.828;  -11.997;13987.376
807.691; 8134.932;  -13.997;14038.674
808.258; 7828.669;  -10.927;14120.152
808.825; 8226.837;  -13.727;13860.111
809.392; 8710.535;  -11.847;13268.790
809.959; 8333.679;  -14.217;12680.389
810.526; 7506.471;   -8.277;12427.308
811.093; 7107.357;   -9.647;12030.105
811.659; 7009.840;  -10.987;11653.664
812.226; 6735.416;  -13.447;11637.183
812.793; 6853.537;  -14.418;11611.521
813.360; 7257.125;  -13.908;11885.181
813.926; 7376.320;  -12.918;12770.539
814.493; 7144.157;  -14.888;12677.638
815.060; 7153.023;  -12.758;11974.336
815.626; 7508.269;  -13.478;11594.715
816.193; 7665.752;  -13.898;11579.474
816.759; 7510.287;  -13.588;11666.972
817.325; 7530.600;  -12.018;11325.530
817.892; 7297.293;  -14.068;11105.369
818.458; 6525.819;  -13.458;10843.928
819.024; 6160.757;  -11.968;10714.406
819.591; 5842.438;  -11.028;10469.165
820.157; 5534.326;  -12.088;10235.523
820.723; 5487.658;  -12.599;10847.563
821.289; 5691.837;  -10.419;11040.980
821.855; 6277.334;  -10.939;10357.100
822.421; 6891.166;  -12.539; 9978.918
822.987; 6915.988;  -13.259; 9754.177
823.553; 6322.821;  -15.369;10065.755
824.119; 6028.451;  -10.779;10036.294
824.685; 5708.136;   -9.999;10029.192
825.251; 5387.435;  -11.819;10199.230
825.816; 5146.034;  -13.369; 9820.189
826.382; 5194.199;  -12.679; 9297.248
826.948; 5492.281;  -11.199; 9381.347
827.513; 5505.005;  -11.179; 9450.726
828.079; 5401.201;  -13.489; 9472.444
828.645; 5598.724;  -12.500; 9292.643
829.210; 5960.192;  -15.120; 9065.341
829.776; 5991.817;  -12.590; 9132.620
830.341; 5837.962;  -11.540; 9092.878
830.906; 5723.633;  -12.400; 9078.557
831.472; 5586.856;  -12.720; 8534.535
832.037; 5256.728;  -11.490; 8677.874
832.602; 4834.223;  -14.380; 8628.692
833.167; 4936.687;  -12.780; 8879.031
833.733; 5151.076;  -11.100; 9189.790
834.298; 5335.756;  -12.080; 9052.608
834.863; 5473.404;  -13.910; 8895.087
835.428; 5325.740;  -13.470; 8824.266
835.993; 5520.828;  -11.760; 8845.385
836.558; 5870.153;  -12.731; 8888.563
837.123; 6067.853;  -12.431; 8966.582
837.688; 5916.889;  -11.241; 8617.860
838.253; 5613.540;  -13.681; 8590.699
838.817; 5224.313;  -12.531; 8443.797
839.382; 5160.954;  -12.671; 8799.356
839.947; 5197.667;  -11.541; 8810.595
840.511; 5052.012;  -12.021; 8796.394
841.076; 5051.021;  -13.071; 8347.231
841.641; 5079.650;  -11.411; 8224.330
842.205; 4831.969;  -13.671; 8223.349
842.770; 4622.604;  -11.291; 8622.107
843.334; 4685.480;  -12.951; 8410.386
843.898; 4797.566;  -11.221; 8337.465
844.463; 4791.401;  -11.322; 8506.283
845.027; 4670.423;  -11.412; 8280.962
845.591; 4426.250;  -11.512; 8231.141
846.156; 4573.702;  -14.042; 7969.179
846.720; 4885.128;  -12.152; 7768.278
847.284; 4869.266;  -10.922; 7630.957
847.848; 4560.582;  -10.962; 7472.395
848.412; 4163.128;  -14.612; 7437.394
848.976; 4061.494;  -11.492; 7674.592
849.540; 4071.421;   -9.172; 7836.011
850.104; 4276.151;  -11.232; 7913.669
850.668; 4754.636;  -15.182; 7694.508
851.232; 4613.263;  -15.332; 7756.887
851.796; 4143.976;  -13.703; 7926.545
852.359; 4116.872;  -11.113; 7827.844
852.923; 4256.150;  -11.843; 7641.163
853.487; 4293.062;  -11.173; 7342.501
854.050; 4209.648;  -13.443; 7042.820
854.614; 3990.169;  -13.823; 7151.338
855.177; 3845.690;  -16.393; 7105.077
855.741; 3962.094;  -11.693; 6989.675
856.304; 4091.455;  -10.843; 6596.634
856.868; 4020.984;  -13.783; 6356.272
857.431; 3673.340;  -11.953; 6468.571
857.995; 3164.755;  -13.683; 6373.210
858.558; 2699.486;  -11.433; 6324.448
859.121; 2287.819;  -12.493; 6408.327
859.684; 2047.799;  -12.384; 6347.886
860.247; 2024.939;  -14.774; 6321.264
860.810; 2083.468;  -13.154; 6301.903
861.374; 2166.976;  -11.264; 6607.881
861.937; 2274.960;  -15.424; 6408.200
862.500; 2404.651;  -12.854; 6572.639
863.062; 2536.356;  -12.344; 6387.297
863.625; 2637.715;  -13.314; 6190.836
864.188; 2561.130;  -14.724; 5807.254
864.751; 2451.447;  -13.464; 5682.413
865.314; 2408.979;  -11.684; 5547.492
865.876; 2459.923;  -11.104; 5500.150
866.439; 2617.881;  -12.344; 5415.909
867.002; 2661.551;  -13.494; 5501.567
867.564; 2686.228;  -10.935; 5413.946
868.127; 2589.583;  -12.665; 5160.325
868.689; 2404.685;  -14.515; 5133.183
869.252; 2394.510;  -13.425; 5252.382
869.814; 2406.869;  -11.595; 5297.141
870.377; 2401.789;  -12.175; 5390.919
870.939; 2279.213;  -10.265; 5599.898
871.501; 2166.806;  -12.375; 5248.336
872.063; 2150.932;  -14.355; 4854.235
872.626; 2219.980;  -14.435; 4817.074
873.188; 2158.458;  -12.415; 4987.732
873.750; 2108.361;  -14.555; 4868.651
874.312; 2101.341;  -11.185; 4779.330
874.874; 2044.176;  -12.715; 4866.348
875.436; 1919.885;  -13.196; 4718.887
875.998; 1842.409;  -11.426; 4660.005
876.560; 1786.268;   -9.786; 4462.964
877.122; 1788.250;  -12.796; 4145.042
877.683; 1751.105;  -13.226; 4056.481
878.245; 1680.385;  -12.036; 3950.740
878.807; 1598.156;  -11.536; 4058.958
879.369; 1536.363;  -10.806; 3954.677
879.930; 1580.377;  -13.946; 3941.495
880.492; 1709.702;  -11.876; 4067.014
881.053; 1698.248;  -13.216; 3859.633
881.615; 1597.591;  -12.226; 3776.071
882.176; 1546.425;  -12.946; 3734.750
882.738; 1530.178;  -10.736; 3678.489
883.299; 1464.364;  -12.057; 3405.407
883.860; 1351.570;  -12.677; 3351.106
884.422; 1272.774;  -14.097; 3394.044
884.983; 1218.267;  -13.667; 3166.443
885.544; 1160.689;  -10.717; 3189.802
886.105; 1116.366;  -14.357; 3160.360
886.666; 1078.359;  -14.287; 3093.059
887.227; 1036.686;  -14.297; 2941.957
887.788; 1009.676;  -13.137; 2974.836
888.349;  950.893;  -14.637; 2721.214
888.910;  886.560;  -12.247; 2696.493
889.471;  881.779;  -10.577; 2560.172
890.032;  875.941;  -12.937; 2558.190
890.593;  855.084;  -12.487; 2567.669
891.153;  831.831;  -11.898; 2460.307
891.714;  790.612;  -14.278; 2372.046
892.275;  767.671;  -13.308; 2309.505
892.835;  734.049;  -12.058; 2382.543
893.396;  655.943;  -15.268; 2295.502
893.956;  603.870;  -13.278; 2162.420
894.517;  583.787;  -11.968; 2125.439
895.077;  588.193;  -12.798; 2086.978
895.638;  578.719;  -11.908; 2126.316
896.198;  564.397;  -13.288; 1838.275
896.758;  540.045;  -12.198; 1892.813
897.319;  510.544;  -13.048; 1792.232
897.879;  479.517;  -13.718; 1762.751
898.439;  445.050;  -14.138; 1661.149
898.999;  408.649;  -13.659; 1781.468
899.559;  384.519;  -14.699; 1703.347
900.119;  364.944;  -14.339; 1537.525
900.679;  338.530;  -11.789; 1638.384
901.239;  312.529;  -13.629; 1527.902
901.799;  294.040;  -13.679; 1456.441
902.359;  283.666;  -13.679; 1357.140
902.919;  276.679;  -14.159; 1331.118
903.479;  265.267;  -13.419; 1317.257
904.038;  249.478;  -14.899; 1262.595
904.598;  234.159;  -14.339; 1152.034
905.158;  227.076;  -13.959; 1240.893
905.717;  220.600;  -12.749; 1233.691
906.277;  217.461;  -11.889; 1217.330
906.836;  212.212;  -12.870; 1222.408
907.396;  205.216;  -11.790; 1193.047
907.955;  197.522;  -13.750; 1182.526
908.515;  188.059;  -14.760; 1099.364
909.074;  181.844;  -12.540; 1092.863
909.633;  177.912;  -12.120; 1069.121
910.192;  173.305;  -12.550; 1196.460
910.752;  166.878;  -12.760; 1029.960
911.311;  164.019;  -14.750; 1009.780
911.870;  160.918;  -13.860;  971.460
912.429;  161.950;  -13.480; 1094.080
912.988;  161.118;  -12.370; 1081.060
913.547;  157.089;  -14.670;  940.380
914.106;  156.093;  -12.800;  999.420
914.665;  155.766;  -11.370;  984.020
915.224;  152.452;  -11.430; 1035.760
915.782;  150.391;  -12.260;  922.560
916.341;  149.459;  -12.540; 1049.840
916.900;  145.861;  -12.540;  925.260
917.458;  143.346;  -13.480;  884.220
918.017;  142.648;  -12.470;  942.600
918.576;  142.034;  -13.450;  904.440
919.134;  141.470;  -12.890;  837.980
919.693;  140.877;  -15.480;  893.060
920.251;  139.602;  -14.420;  876.500
920.809;  138.594;  -12.170;  839.580
921.368;  138.644;  -13.650;  885.360
921.926;  138.170;  -12.750;  842.940
922.484;  138.338;  -14.150;  903.360
923.042;  137.367;  -15.100;  880.340
923.601;  138.408;  -10.990;  998.680
924.159;  136.012;  -12.470;  935.560
924.717;  136.667;  -15.640;  841.080
925.275;  138.276;  -12.380;  903.240
925.833;  136.908;  -12.710;  779.320
926.391;  139.368;  -11.200;  938.380
926.949;  139.823;  -16.000;  857.680
927.506;  141.026;  -12.260;  903.500
928.064;  141.979;  -11.300;  877.580
928.622;  141.264;  -13.750;  880.100
929.180;  142.010;  -15.290;  814.180
929.737;  142.156;  -14.500;  808.540
930.295;  146.286;  -10.630;  928.480
930.853;  146.978;  -14.590;  849.100
931.410;  148.163;  -14.450;  821.120
931.968;  150.948;  -14.390;  940.660
932.525;  156.121;  -13.050;  909.380
933.082;  160.109;  -15.620;  811.440
933.640;  169.814;  -15.650;  925.900
934.197;  173.535;  -13.610;  886.360
934.754;  174.357;  -13.320;  897.780
935.312;  164.990;  -13.370;  863.340
935.869;  157.697;  -12.780; 1012.980
936.426;  149.359;  -14.480;  872.800
936.983;  147.851;  -13.180;  889.020
937.540;  150.501;  -15.710;  838.280
938.097;  157.285;  -14.980;  940.120
938.654;  160.760;  -13.060;  898.860
939.211;  161.844;  -12.760;  952.480
939.768;  163.873;  -16.230;  915.420
940.324;  170.150;  -10.940;  904.200
940.881;  177.054;  -12.570;  878.500
941.438;  181.843;  -13.650; 1021.200
941.995;  179.956;  -13.300;  992.560
942.551;  180.149;  -15.800;  875.620
943.108;  178.549;  -14.180;  937.920
943.664;  174.476;  -13.890;  869.340
944.221;  173.131;  -12.640; 1088.140
944.777;  169.802;  -14.700;  869.680
945.334;  170.083;  -13.010;  884.840
945.890;  170.999;  -13.480;  946.480
946.446;  169.317;  -14.920;  947.020
947.003;  169.129;  -13.860;  964.940
947.559;  172.191;  -12.000; 1063.040
948.115;  171.451;  -10.510; 1026.540
948.671;  169.575;  -12.760;  967.300
949.227;  165.038;  -15.390;  859.560
949.783;  162.407;  -15.570;  858.900
950.339;  163.523;  -12.800;  991.000
950.895;  162.804;  -13.780; 1023.840
951.451;  158.824;  -13.810;  925.280
952.007;  158.965;  -12.390;  998.540
952.563;  157.885;  -11.980;  937.780
953.118;  153.381;  -14.070;  904.940
953.674;  151.541;  -14.140;  935.780
954.230;  151.105;  -12.680;  949.640
954.785;  152.078;  -12.770;  936.640
955.341;  151.603;  -11.450;  998.160
955.897;  147.625;  -15.350;  834.660
956.452;  146.127;  -14.200;  953.840
957.008;  145.668;  -10.820; 1083.640
957.563;  142.120;  -13.200; 1009.540
958.118;  137.227;  -14.460;  877.700
958.674;  136.406;  -13.840;  946.780
959.229;  136.827;  -10.670; 1013.980
959.784;  137.037;  -17.040;  832.400
960.339;  140.289;  -12.970; 1001.280
960.894;  139.679;  -12.700;  963.760
961.449;  138.646;  -13.790;  859.960
962.004;  142.513;  -11.760; 1212.840
962.559;  141.991;  -14.840;  860.140
963.114;  141.285;  -14.530;  742.480
963.669;  144.342;  -12.780;  915.500
964.224;  145.909;  -14.330;  874.340
964.779;  144.214;  -14.380;  828.420
965.334;  138.390;  -12.460; 1017.860
965.888;  133.079;  -13.490;  875.360
966.443;  131.539;  -14.140;  972.380
966.998;  128.114;  -16.240;  819.460
967.552;  125.457;  -12.730;  908.380
968.107;  123.599;  -14.510;  868.300
968.661;  124.774;  -11.850;  922.440
969.216;  122.022;  -14.370;  856.280
969.770;  122.170;  -13.010;  917.200
970.324;  122.807;  -12.460;  923.140
970.879;  121.073;  -11.580;  947.180
971.433;  120.790;  -13.130;  952.720
971.987;  118.343;  -12.360;  895.340
972.541;  118.044;  -14.330;  917.100
973.095;  117.471;  -13.310; 1009.460
973.649;  115.652;  -15.830;  809.480
974.203;  117.481;  -15.830;  829.040
974.757;  121.601;  -13.480;  855.220
975.311;  120.914;  -13.720;  872.600
975.865;  117.654;  -15.780;  881.820
976.419;  112.941;  -14.290;  857.400
976.973;  111.558;  -13.210;  849.620
977.526;  110.287;  -12.300;  949.920
978.080;  106.077;  -14.840;  796.780
978.634;  107.920;  -13.100;  921.320
979.187;  105.239;  -12.300;  905.400
979.741;  102.715;  -12.020; 1018.380
980.294;   96.311;  -14.590;  789.160
980.848;   92.525;  -14.390;  717.220
981.401;   92.336;  -14.280;  816.540
981.955;   93.112;  -11.920;  844.300
982.508;   90.266;  -15.790;  746.340
983.061;   91.072;  -12.070;  915.260
983.615;   88.043;  -13.260;  798.800
984.168;   85.167;  -15.540;  770.080
984.721;   85.126;  -13.230;  880.760
985.274;   83.406;  -11.820;  867.500
985.827;   82.062;  -13.510;  834.220
986.380;   77.940;  -14.840;  721.340
986.933;   79.675;  -13.970;  864.800
987.486;   77.805;  -12.450;  861.920
988.039;   76.422;  -11.170;  863.100
988.591;   74.315;  -13.070;  893.260
989.144;   70.333;  -15.530;  737.260
989.697;   69.710;  -14.300;  758.740
990.250;   69.499;  -13.310;  858.100
990.802;   67.325;  -14.490;  755.860
991.355;   69.363;  -12.980;  974.880
991.907;   67.585;  -13.715;  864.320
992.460;   65.806;  -14.450;  753.760
993.012;   64.499;  -12.590;  749.540
993.565;   63.764;  -15.180;  711.360
994.117;   64.736;  -11.630;  950.780
994.669;   60.708;  -13.760;  701.320
995.221;   59.689;  -12.710;  791.920
995.774;   59.362;  -14.620;  787.580
996.326;   57.910;  -13.150;  740.220
996.878;   58.631;  -12.880;  838.420
997.430;   56.732;  -14.580;  699.860
997.982;   56.138;  -14.030;  750.140
998.534;   56.027;  -12.190;  739.060
999.086;   54.494;  -12.990;  738.220
999.638;   53.546;  -13.180;  661.380
1000.190;   52.465;  -14.970;  699.320
1000.741;   52.425;  -12.200;  742.700
1001.293;   52.219;  -13.400;  686.020
1001.845;   51.415;  -14.490;  676.640
1002.396;   52.269;  -15.280;  743.400
1002.948;   51.391;  -12.380;  737.400
1003.500;   50.758;  -13.260;  723.780
1004.051;   51.331;  -13.730;  907.580
1004.603;   49.678;  -12.300;  791.820
1005.154;   46.153;  -15.330;  608.980
1005.705;   45.658;  -12.800;  723.960
1006.257;   45.003;  -13.900;  707.220
1006.808;   44.092;  -14.430;  685.460
1007.359;   43.712;  -12.010;  763.240
1007.910;   42.105;  -12.690;  646.640
1008.461;   42.509;  -13.610;  732.940
1009.013;   39.753;  -14.990;  588.340
1009.564;   41.903;  -11.860;  793.520
1010.115;   39.607;  -12.640;  597.040
1010.665;   38.923;  -14.570;  602.160
1011.216;   39.813;  -15.190;  667.920
1011.767;   38.713;  -13.470;  697.920
1012.318;   39.235;  -13.760;  736.980
1012.869;   38.030;  -15.950;  679.000
1013.419;   37.706;  -15.880;  603.120
1013.970;   38.173;  -14.540;  666.640
1014.521;   37.865;  -13.220;  620.620
1015.071;   36.735;  -15.020;  670.380
1015.622;   37.270;  -17.510;  635.460
1016.172;   36.233;  -14.130;  596.820
1016.723;   35.138;  -14.220;  614.380
1017.273;   35.656;  -15.370;  604.160
1017.823;   35.908;  -15.290;  650.340
1018.374;   34.738;  -13.420;  611.760
1018.924;   35.058;  -11.740;  716.880
1019.474;   35.733;  -12.250;  718.880
1020.024;   33.771;  -15.850;  657.580
1020.574;   34.964;  -13.280;  726.160
1021.124;   35.328;  -13.560;  673.580
1021.674;   33.257;  -13.790;  559.120
1022.224;   34.249;  -14.610;  708.940
1022.774;   33.643;  -13.100;  668.820
1023.324;   35.369;  -11.470;  753.520
1023.874;   35.601;  -11.990;  875.760
1024.423;   32.379;  -14.550;  613.700
1024.973;   32.228;  -14.440;  610.760
1025.523;   31.850;  -13.250;  620.960
1026.072;   32.105;  -15.200;  606.420
1026.622;   31.334;  -14.590;  675.740
1027.172;   32.548;  -11.080;  715.660
1027.721;   30.764;  -14.010;  601.220
1028.270;   31.075;  -13.690;  663.400
1028.820;   30.886;  -15.380;  638.080
1029.369;   30.141;  -14.980;  612.700
1029.918;   30.642;  -13.100;  649.840
1030.468;   29.729;  -13.680;  564.780
1031.017;   30.777;  -13.770;  634.800
1031.566;   29.340;  -14.100;  608.900
1032.115;   30.404;  -11.770;  694.500
1032.664;   28.515;  -14.940;  596.480
1033.213;   30.080;  -13.370;  735.420
1033.762;   28.743;  -13.660;  635.620
1034.311;   29.278;  -13.650;  677.220
1034.860;   29.990;  -13.820;  691.000
1035.408;   29.039;  -12.860;  722.720
1035.957;   28.953;  -13.060;  719.540
1036.506;   26.545;  -14.510;  530.800
1037.055;   29.626;  -13.470;  844.320
1037.603;   27.804;  -14.800;  664.000
1038.152;   26.685;  -14.190;  534.760
1038.700;   27.261;  -11.810;  585.740
1039.249;   27.019;  -12.850;  681.220
1039.797;   27.362;  -14.610;  633.360
1040.345;   27.190;  -15.220;  705.420
1040.894;   26.031;  -13.480;  625.300
1041.442;   26.184;  -13.310;  632.200
1041.990;   24.896;  -14.510;  559.160
1042.538;   25.090;  -15.700;  536.180
1043.087;   25.387;  -13.910;  570.860
1043.635;   26.795;  -13.620;  670.500
1044.183;   25.418;  -14.230;  586.400
1044.731;   25.003;  -13.730;  576.000
1045.279;   24.897;  -13.970;  674.920
1045.827;   27.444;  -10.750;  892.400
1046.374;   23.864;  -15.230;  515.420
1046.922;   23.479;  -15.390;  590.580
1047.470;   24.935;  -12.320;  691.300
1048.018;   24.430;  -13.230;  647.960
1048.565;   25.694;  -13.390;  708.600
1049.113;   22.784;  -15.030;  557.000
1049.660;   23.706;  -12.540;  629.660
1050.208;   23.673;  -15.040;  675.640
1050.755;   23.028;  -14.680;  606.580
1051.303;   23.758;  -13.610;  686.820
1051.850;   23.402;  -14.340;  635.120
1052.397;   21.412;  -16.330;  473.960
1052.945;   21.671;  -15.710;  617.760
1053.492;   23.273;  -12.320;  741.840
1054.039;   22.695;  -13.730;  720.180
1054.586;   22.134;  -16.140;  557.240
1055.133;   22.560;  -14.020;  693.140
1055.680;   22.356;  -13.430;  646.620
1056.227;   21.279;  -14.570;  542.780
1056.774;   23.713;  -14.400;  794.980
1057.321;   21.649;  -14.230;  523.260
1057.868;   21.343;  -14.220;  651.320
1058.415;   21.836;  -14.060;  651.980
1058.961;   21.733;  -14.640;  678.940
1059.508;   20.936;  -13.970;  643.820
1060.055;   20.295;  -15.100;  581.780
1060.601;   21.542;  -12.180;  624.300
1061.148;   20.720;  -15.010;  616.820
1061.694;   20.389;  -14.750;  592.580
1062.241;   19.900;  -14.130;  596.320
1062.787;   20.439;  -14.770;  663.140
1063.334;   23.003;  -13.130;  808.560
1063.880;   20.530;  -14.420;  668.360
1064.426;   20.759;  -13.130;  706.820
1064.972;   19.440;  -13.960;  601.340
1065.518;   18.042;  -13.680;  566.640
1066.065;   19.504;  -15.720;  624.460
1066.611;   18.362;  -13.970;  598.800
1067.157;   19.598;  -13.920;  641.860
1067.703;   19.218;  -14.760;  668.480
1068.249;   18.660;  -14.490;  605.220
1068.794;   18.238;  -14.740;  626.880
1069.340;   17.786;  -13.220;  578.960
1069.886;   17.931;  -14.930;  590.700
1070.432;   17.130;  -14.700;  541.720
1070.977;   17.295;  -14.470;  601.080
1071.523;   17.624;  -14.330;  573.060
1072.068;   17.614;  -14.960;  582.000
1072.614;   17.314;  -16.220;  527.760
1073.160;   18.451;  -11.280;  687.040
1073.705;   16.145;  -15.990;  572.520
1074.250;   16.429;  -16.550;  559.900
1074.796;   17.980;  -14.600;  655.160
1075.341;   17.415;  -13.440;  664.100
1075.886;   17.191;  -14.450;  594.240
1076.431;   16.211;  -13.160;  649.880
1076.976;   16.874;  -14.710;  639.220
1077.521;   15.663;  -14.000;  583.080
1078.067;   15.738;  -14.470;  579.400
1078.612;   16.083;  -14.530;  661.620
1079.156;   15.933;  -15.660;  601.540
1079.701;   16.091;  -16.120;  693.260
1080.246;   17.101;  -12.960;  696.300
1080.791;   16.215;  -13.700;  625.020
1081.336;   16.023;  -15.540;  659.320
1081.880;   15.186;  -14.640;  649.680
1082.425;   15.255;  -14.220;  573.480
1082.970;   16.582;  -11.890;  717.040
1083.514;   14.986;  -13.820;  597.000
1084.059;   14.541;  -14.280;  586.720
1084.603;   13.958;  -12.890;  565.840
1085.147;   14.294;  -13.590;  645.220
1085.692;   15.694;  -14.050;  716.800
1086.236;   12.934;  -14.990;  503.140
1086.780;   15.550;  -12.640;  751.440
1087.325;   15.093;  -15.550;  654.620
1087.869;   14.397;  -14.980;  610.700
1088.413;   14.610;  -13.440;  705.040
1088.957;   12.592;  -12.170;  543.400
1089.501;   15.345;  -12.730;  766.640
1090.045;   13.996;  -14.650;  726.480
1090.589;   12.198;  -14.500;  569.920
1091.133;   13.391;  -12.320;  673.340
1091.676;   13.198;  -16.130;  591.940
1092.220;   12.799;  -13.930;  600.920
1092.764;   13.689;  -12.820;  706.960
1093.307;   13.271;  -11.700;  673.780
1093.851;   12.606;  -15.600;  556.540
1094.395;   13.029;  -13.920;  683.140
1094.938;   12.718;  -16.090;  632.520
1095.482;   12.491;  -13.820;  559.800
1096.025;   13.173;  -12.720;  710.880
1096.568;   13.367;  -12.100;  779.280
1097.112;    9.643;  -15.450;  508.180
1097.655;   11.970;  -14.310;  603.000
1098.198;   10.297;  -14.740;  600.180
1098.741;   11.069;  -15.550;  612.860
1099.285;   11.772;  -12.600;  657.300
1099.828;    9.434;  -15.050;  439.400
1100.371;   11.435;  -14.800;  608.160
1100.914;   11.812;  -16.480;  682.660
1101.457;   11.053;  -12.990;  679.900
1101.999;   10.643;  -14.110;  584.680
1102.542;   11.179;  -11.450;  641.440
1103.085;   11.137;  -13.350;  658.500
1103.628;   11.631;  -13.200;  762.060
1104.170;   10.298;  -12.310;  588.280
1104.713;   10.937;  -14.320;  646.700
1105.256;    9.334;  -16.110;  557.440
1105.798;    8.148;  -15.910;  499.980
1106.341;   10.569;  -12.200;  728.900
1106.883;    9.662;  -14.910;  521.340
1107.425;    9.884;  -14.960;  668.180
1107.968;    9.297;  -13.440;  612.380
1108.510;   10.334;  -14.010;  684.960
1109.052;    8.581;  -15.430;  612.620
1109.594;    8.934;  -15.290;  554.440
1110.136;    9.451;  -13.360;  643.220
1110.679;    9.097;  -13.820;  633.080
1111.221;    9.643;  -13.690;  604.460
1111.763;    8.412;  -14.890;  559.220
1112.304;    7.525;  -14.550;  547.140
1112.846;    8.829;  -12.760;  666.240
1113.388;   11.834;  -10.780;  942.180
1113.930;    9.431;  -12.690;  694.200
1114.472;    8.230;  -15.730;  606.540
1115.013;    6.477;  -14.620;  551.280
1115.555;    7.301;  -14.950;  587.100
1116.097;    7.512;  -16.460;  579.480
1116.638;    8.119;  -13.730;  684.600
1117.180;    8.740;  -13.810;  667.740
1117.721;    6.943;  -13.280;  568.580
1118.262;    8.873;  -15.080;  677.960
1118.804;    8.091;  -14.040;  637.340
1119.345;    7.103;  -15.430;  578.400
1119.886;    8.217;  -15.240;  704.040
1120.427;    7.001;  -15.820;  589.020
1120.969;    6.856;  -14.550;  597.920
1121.510;    6.500;  -14.030;  563.060
1122.051;    7.218;  -11.990;  723.580
1122.592;    6.267;  -16.490;  655.420
1123.133;    5.266;  -15.580;  547.940
1123.673;    7.374;  -12.850;  706.480
1124.214;    6.525;  -13.630;  612.460
1124.755;    7.095;  -14.830;  639.460
1125.296;    6.195;  -13.110;  627.320
1125.836;    7.759;  -11.320;  691.500
1126.377;    5.424;  -14.330;  599.660
1126.918;    6.920;  -12.800;  614.980
1127.458;    5.869;  -13.580;  622.220
1127.999;    6.725;  -10.330;  656.980
1128.539;    6.695;  -13.390;  694.240
1129.079;    5.946;  -16.420;  632.720
1129.620;    5.304;  -15.700;  558.100
1130.160;    4.289;  -14.790;  539.480
1130.700;    5.340;  -12.910;  640.840
1131.240;    5.809;  -15.610;  643.700
1131.781;    4.677;  -12.920;  619.680
1132.321;    5.153;  -15.300;  599.120
1132.861;    4.390;  -14.760;  564.200
1133.401;    4.588;  -15.470;  593.940
1133.941;    5.324;  -13.710;  626.280
1134.481;    4.344;  -11.820;  597.580
1135.020;    4.265;  -14.810;  609.160
1135.560;    4.765;  -13.660;  674.940
1136.100;    2.931;  -13.940;  501.160
1136.640;    3.606;  -15.410;  510.480
1137.179;    3.600;  -16.920;  537.960
1137.719;    4.337;  -16.430;  605.400
1138.258;    3.424;  -16.300;  587.360
1138.798;    4.940;  -13.710;  663.780
1139.337;    3.177;  -13.840;  482.840
1139.877;    3.942;  -16.140;  642.360
1140.416;    6.412;  -11.410;  878.060
1140.955;    2.972;  -12.820;  535.380
1141.494;    4.066;  -12.310;  669.280
1142.034;    3.021;  -16.280;  583.520
1142.573;    3.851;  -13.090;  646.280
1143.112;    2.358;  -13.770;  553.480
1143.651;    3.755;  -15.830;  536.480
1144.190;    4.602;  -15.010;  691.640
1144.729;    3.462;  -13.650;  607.420
1145.267;    3.338;  -13.670;  584.900
1145.806;    3.990;  -13.630;  637.040
1146.345;    2.865;  -14.160;  635.020
1146.884;    2.606;  -11.180;  622.500
1147.422;    1.830;  -15.890;  533.060
1147.961;    4.038;  -12.760;  708.460
1148.500;    3.142;  -15.220;  669.720
1149.038;    3.322;  -13.720;  632.500
1149.577;    3.413;  -13.250;  698.640
1150.115;    1.009;  -16.790;  452.280
1150.653;    3.211;  -15.810;  607.340
1151.192;    2.625;  -14.730;  552.920
1151.730;    2.161;  -13.660;  652.560
1152.268;    2.153;  -15.120;  589.520
1152.806;    1.748;  -15.580;  571.180
1153.344;    0.539;  -16.210;  577.640
1153.882;    2.168;  -12.810;  600.060
1154.421;   -0.068;  -14.150;  470.620
1154.958;    0.719;  -15.360;  595.240
1155.496;    1.805;  -14.710;  645.280
1156.034;    2.070;  -13.640;  721.880
1156.572;    2.255;  -13.740;  667.060
1157.110;    0.412;  -16.960;  473.940
1157.647;    1.687;  -11.940;  676.960
1158.185;    0.840;  -14.090;  564.320
1158.723;   -0.679;  -13.610;  509.200
1159.260;    0.837;  -14.760;  701.700
1159.798;    1.758;  -13.700;  658.160
1160.335;    0.959;  -13.820;  631.820

