membrane
Integration time [ms]:   3.882
Averaging Nr. [scans]: 1000
Smoothing Nr. [pixels]: 0
Data measured with spectrometer [name]: 7414430SP
Wave   ;Sample   ;Dark     ;Reference
[nm]   ;[counts] ;[counts] ;[counts] 

288.544;  131.183;   10.292;  793.890
289.143;  133.459;    4.564;  681.602
289.742;  133.592;    6.144;  828.814
290.341;  120.988;    4.396;  789.841
290.940;  111.818;    0.938;  730.702
291.538;  112.900;   -0.684;  881.108
292.137;  111.087;   -2.845;  792.581
292.736;  116.311;   -0.144;  975.101
293.335;  112.345;   -6.352;  735.086
293.934;  112.054;   -7.642;  781.677
294.532;  111.414;   -4.992; 1031.958
295.131;   98.001;   -5.478;  834.394
295.730;   98.817;   -6.549;  809.588
296.328;   96.322;   -9.558;  783.442
296.927;   96.447;   -8.118;  779.652
297.525;   96.928;   -6.908;  781.236
298.124;   88.135;   -9.195;  654.009
298.722;   92.808;   -8.198;  761.933
299.321;   91.338;   -8.817;  708.597
299.919;   88.614;   -7.716;  751.918
300.518;   85.155;  -10.745;  689.338
301.116;   86.701;   -9.647;  691.381
301.715;   86.408;  -10.828;  730.222
302.313;   86.199;   -6.087;  704.943
302.911;   81.290;   -6.824;  733.830
303.509;   86.421;   -8.807;  925.627
304.108;   83.756;   -8.198;  760.383
304.706;   83.916;   -6.218;  801.664
305.304;   79.028;   -7.185;  796.707
305.902;   84.184;   -8.568;  784.484
306.500;   79.542;   -7.737;  728.200
307.098;   78.771;   -6.026;  746.560
307.696;   76.740;   -7.176;  780.432
308.294;   75.991;   -8.656;  731.359
308.892;   79.446;   -6.838;  759.769
309.490;   74.762;   -2.596;  712.161
310.088;   73.519;   -4.485;  788.444
310.686;   78.406;   -3.907;  821.749
311.284;   74.040;   -2.806;  766.040
311.882;   71.683;   -2.845;  731.225
312.480;   68.810;   -3.274;  697.167
313.078;   69.856;   -3.645;  808.331
313.675;   71.140;   -4.997;  691.600
314.273;   66.365;   -0.894;  797.837
314.871;   66.109;   -2.854;  589.829
315.468;   63.654;   -3.644;  652.090
316.066;   67.303;   -3.947;  694.427
316.664;   59.437;   -1.824;  656.351
317.261;   64.783;    1.565;  910.128
317.859;   59.899;   -3.955;  768.735
318.456;   60.150;   -2.886;  830.096
319.054;   57.151;   -0.995;  787.828
319.651;   56.718;   -1.765;  759.928
320.249;   54.970;   -3.685;  810.188
320.846;   53.528;   -3.736;  714.286
321.443;   51.537;   -2.065;  832.135
322.041;   49.096;   -5.635;  812.315
322.638;   47.613;   -5.985;  701.456
323.235;   48.329;   -6.677;  665.683
323.833;   46.750;   -3.497;  740.354
324.430;   42.558;   -6.756;  615.900
325.027;   43.890;   -7.647;  876.855
325.624;   44.426;   -7.598;  644.532
326.221;   41.844;   -5.848;  689.717
326.818;   41.576;   -5.777;  818.332
327.415;   43.817;   -8.769;  748.828
328.012;   43.335;   -6.299;  690.585
328.609;   41.842;   -6.639;  731.389
329.206;   39.928;   -6.358;  778.621
329.803;   40.059;   -8.698;  737.841
330.400;   41.408;   -8.379;  704.260
330.997;   42.342;   -6.178;  817.147
331.594;   39.526;   -5.646;  788.185
332.191;   44.206;   -6.928;  728.722
332.787;   45.550;   -6.057;  844.463
333.384;   43.435;   -6.445;  763.093
333.981;   41.325;   -8.002;  815.687
334.578;   43.583;   -8.443;  708.378
335.174;   45.061;   -6.053;  731.469
335.771;   44.847;   -5.791;  836.456
336.367;   42.251;   -6.570;  710.631
336.964;   44.247;   -6.741;  793.266
337.561;   43.174;   -5.710;  731.112
338.157;   39.953;   -3.928;  911.916
338.754;   36.859;   -5.577;  796.589
339.350;   35.505;   -9.667;  722.493
339.946;   38.840;   -5.269;  773.135
340.543;   30.670;   -4.485;  846.136
341.139;   25.789;   -7.584;  720.836
341.735;   24.779;   -8.553;  772.593
342.332;   23.529;   -4.984;  691.472
342.928;   23.835;   -3.475;  795.394
343.524;   17.911;   -6.653;  761.684
344.120;   16.083;   -7.173;  738.562
344.716;   18.846;   -4.385;  723.717
345.313;   17.230;   -3.565;  795.342
345.909;   12.393;   -7.495;  627.336
346.505;   15.297;   -8.276;  740.247
347.101;   15.518;   -5.697;  827.864
347.697;   15.937;   -4.767;  785.398
348.293;   10.502;   -7.226;  627.244
348.889;   11.147;   -7.547;  745.914
349.485;   11.283;   -9.147;  688.205
350.081;   12.095;   -6.568;  772.592
350.676;    7.500;   -6.516;  691.606
351.272;   12.172;   -7.378;  809.530
351.868;   11.621;   -6.759;  780.497
352.464;    9.495;   -4.798;  723.932
353.059;    5.596;   -7.977;  646.017
353.655;    9.033;   -8.769;  777.063
354.251;    9.841;   -5.920;  759.845
354.846;    4.608;   -7.647;  740.646
355.442;    2.827;   -6.956;  753.071
356.038;    5.616;   -9.928;  751.708
356.633;    5.122;   -7.698;  728.594
357.229;    3.259;   -6.307;  724.757
357.824;    1.456;   -7.647;  703.600
358.420;    0.591;  -10.047;  679.726
359.015;    1.052;   -7.458;  695.357
359.610;    2.721;   -5.748;  763.920
360.206;   -3.588;   -9.346;  603.240
360.801;   -1.088;  -11.268;  646.503
361.396;    1.508;   -8.789;  725.975
361.992;   -2.379;   -6.347;  668.220
362.587;   -5.257;   -6.476;  670.160
363.182;   -3.442;   -9.457;  689.631
363.777;   -1.858;   -7.147;  738.242
364.372;   -1.858;   -5.507;  737.314
364.967;   -6.141;   -6.386;  680.744
365.563;   -1.244;   -7.858;  815.567
366.158;   -4.625;   -8.517;  685.161
366.753;   -4.070;   -8.728;  649.263
367.348;   -5.372;   -7.677;  746.056
367.942;   -5.729;  -10.387;  697.298
368.537;   -5.661;   -7.187;  754.245
369.132;   -6.356;   -8.587;  703.428
369.727;   -9.917;   -8.606;  638.079
370.322;   -8.765;  -10.426;  580.186
370.917;   -8.680;   -5.776;  710.646
371.511;   -5.685;   -6.007;  861.834
372.106;   -9.265;   -6.686;  776.964
372.701;  -12.511;   -9.335;  585.988
373.296;   -6.483;   -6.777;  863.135
373.890;  -11.192;   -7.546;  647.840
374.485;  -13.460;   -8.755;  691.199
375.079;   -9.276;   -9.797;  738.685
375.674;   -7.731;   -6.327;  812.970
376.268;  -12.460;   -9.046;  691.759
376.863;  -17.775;   -7.993;  580.327
377.457;  -11.209;   -9.206;  662.490
378.052;  -13.206;   -5.345;  764.884
378.646;  -12.996;   -5.605;  741.167
379.240;  -14.148;   -6.825;  721.176
379.835;  -13.402;  -10.476;  636.978
380.429;  -15.541;   -8.676;  562.557
381.023;  -14.485;   -4.945;  779.205
381.617;  -17.253;   -8.094;  680.106
382.212;  -13.808;  -10.646;  685.303
382.806;  -12.827;   -8.136;  760.690
383.400;  -16.735;   -7.855;  672.281
383.994;  -17.590;   -8.125;  664.870
384.588;  -13.027;   -7.637;  697.701
385.182;  -11.689;   -7.458;  726.624
385.776;  -13.234;   -6.277;  706.875
386.370;  -16.854;   -7.485;  681.968
386.964;  -15.251;   -9.416;  684.155
387.558;  -14.245;   -8.518;  598.360
388.152;  -17.204;   -7.096;  681.959
388.745;  -14.965;   -7.656;  814.707
389.339;  -13.623;   -8.927;  747.642
389.933;  -12.735;   -9.538;  695.370
390.527;  -13.107;   -5.857;  859.029
391.120;  -19.404;   -9.455;  595.318
391.714;  -16.434;   -9.746;  711.633
392.308;  -12.638;   -7.857;  780.253
392.901;  -17.604;   -9.106;  642.460
393.495;  -19.571;  -10.365;  595.414
394.089;  -16.026;   -9.696;  760.452
394.682;  -17.512;   -7.016;  697.188
395.275;  -18.118;   -8.466;  719.927
395.869;  -19.164;   -8.985;  667.314
396.462;  -16.667;  -11.496;  616.609
397.056;  -12.584;   -7.838;  776.621
397.649;  -16.841;   -6.895;  731.575
398.242;  -14.550;   -5.017;  712.645
398.836;  -14.293;   -8.787;  766.408
399.429;  -14.994;   -8.967;  631.041
400.022;  -19.574;   -8.815;  665.902
400.615;  -15.844;   -6.276;  805.609
401.208;  -13.907;   -8.407;  691.451
401.802;  -17.025;   -7.296;  699.329
402.395;  -17.895;   -7.585;  683.502
402.988;  -19.068;   -8.015;  696.627
403.581;  -14.928;   -9.577;  646.878
404.174;  -12.507;   -7.588;  686.568
404.767;  -15.552;   -7.906;  638.583
405.360;  -18.514;   -7.875;  621.445
405.953;  -12.578;   -8.127;  759.034
406.545;  -11.370;   -7.198;  725.342
407.138;  -16.190;   -8.916;  618.350
407.731;  -15.353;   -9.767;  613.303
408.324;  -10.521;  -10.659;  660.554
408.917;  -11.818;   -8.068;  681.864
409.509;  -14.000;   -9.837;  740.396
410.102;  -14.889;   -8.146;  643.948
410.695;   -9.223;   -7.969;  665.758
411.287;  -10.754;   -8.579;  599.821
411.880;  -11.489;   -6.968;  585.421
412.472;  -13.977;   -9.487;  613.092
413.065;  -11.418;  -10.338;  629.408
413.657;   -8.842;   -9.169;  576.678
414.250;   -8.558;  -10.119;  646.681
414.842;  -10.192;   -9.938;  676.353
415.434;   -7.607;  -10.409;  570.463
416.027;   -3.971;   -9.591;  652.196
416.619;   -6.813;   -7.379;  713.400
417.211;   -6.870;   -9.159;  599.352
417.804;   -2.388;   -9.191;  628.499
418.396;   -6.295;   -8.159;  607.643
418.988;   -4.219;   -6.960;  659.238
419.580;   -7.104;  -11.389;  568.276
420.172;   -5.544;  -13.460;  536.196
420.764;   -0.726;  -10.701;  672.482
421.356;   -1.439;   -8.961;  636.898
421.948;   -2.884;   -9.770;  677.661
422.540;    2.224;   -8.832;  680.027
423.132;    1.193;   -8.153;  600.641
423.724;   -2.477;   -8.481;  561.267
424.316;    0.615;   -9.261;  621.345
424.908;    4.446;   -9.643;  591.517
425.500;    5.052;   -8.663;  647.978
426.092;    5.570;   -8.503;  648.268
426.683;    5.057;  -10.522;  684.836
427.275;    6.962;  -11.734;  641.471
427.867;    8.707;  -10.264;  668.948
428.458;    9.888;   -7.644;  732.344
429.050;    7.501;   -7.853;  680.749
429.642;   10.214;   -8.904;  743.124
430.233;   10.248;  -10.795;  569.356
430.825;   11.715;   -7.665;  724.809
431.416;    9.773;   -8.843;  698.241
432.008;   14.246;   -9.885;  651.723
432.599;   14.599;   -9.966;  656.073
433.190;   10.464;   -9.164;  637.670
433.782;   10.721;   -8.584;  590.395
434.373;   18.458;   -8.296;  884.765
434.964;   17.063;   -9.896;  602.920
435.556;   14.773;   -8.255;  634.537
436.147;   17.621;   -8.075;  758.490
436.738;   17.206;   -9.716;  701.099
437.329;   22.812;   -7.318;  721.723
437.920;   16.483;   -6.694;  666.688
438.511;   14.849;   -9.644;  564.526
439.103;   23.352;   -9.427;  623.998
439.694;   24.827;  -10.748;  681.583
440.285;   25.322;   -7.997;  764.432
440.876;   24.458;  -10.046;  845.738
441.466;   22.756;  -13.467;  575.162
442.057;   28.730;   -9.329;  665.814
442.648;   26.655;   -7.707;  746.255
443.239;   25.515;   -9.017;  620.477
443.830;   30.390;  -10.279;  704.958
444.421;   32.908;  -12.630;  655.474
445.011;   29.329;   -8.697;  693.619
445.602;   29.092;   -7.787;  743.126
446.193;   30.440;  -13.329;  488.117
446.783;   35.754;   -9.171;  640.397
447.374;   31.594;   -7.457;  692.759
447.964;   32.101;   -9.277;  713.770
448.555;   40.528;   -9.041;  822.742
449.145;   36.485;   -8.969;  662.853
449.736;   36.949;   -6.809;  803.179
450.326;   37.854;   -7.229;  713.626
450.917;   42.193;  -11.391;  675.324
451.507;   41.642;   -9.501;  600.661
452.097;   42.665;   -8.460;  746.267
452.688;   43.385;  -10.080;  742.160
453.278;   43.540;  -12.861;  566.840
453.868;   48.242;   -8.372;  793.550
454.458;   46.029;   -8.131;  651.141
455.048;   46.440;   -8.520;  711.783
455.639;   48.340;  -13.632;  567.096
456.229;   51.909;  -10.143;  710.694
456.819;   54.037;   -9.163;  751.158
457.409;   54.717;   -8.652;  773.993
457.999;   57.323;   -9.933;  737.505
458.589;   57.124;  -10.363;  686.606
459.179;   57.128;  -10.633;  717.658
459.769;   55.421;  -12.442;  627.099
460.358;   60.289;   -9.844;  797.262
460.948;   59.415;   -9.924;  689.503
461.538;   62.542;  -10.484;  660.677
462.128;   59.023;  -10.703;  664.934
462.717;   66.353;  -11.486;  710.326
463.307;   69.654;  -10.767;  705.846
463.897;   65.656;   -8.814;  656.942
464.486;   65.469;   -8.182;  837.128
465.076;   69.969;   -9.985;  733.776
465.666;   73.131;  -10.447;  652.900
466.255;   70.893;   -7.754;  785.651
466.845;   70.117;  -10.884;  666.749
467.434;   73.984;  -12.525;  725.873
468.023;   73.541;  -11.456;  658.357
468.613;   71.920;   -9.173;  713.946
469.202;   76.287;   -9.306;  646.507
469.791;   80.346;   -8.917;  737.811
470.381;   82.294;   -9.657;  742.813
470.970;   82.228;   -9.947;  711.099
471.559;   82.434;   -9.256;  733.291
472.148;   86.473;  -13.397;  675.737
472.738;   88.654;   -9.928;  765.466
473.327;   88.206;  -10.897;  637.529
473.916;   87.806;   -8.526;  737.446
474.505;   92.116;  -11.078;  751.703
475.094;   95.941;   -9.559;  806.570
475.683;   95.120;   -8.838;  797.699
476.272;   95.328;  -10.198;  730.632
476.861;   98.955;  -11.489;  706.754
477.449;  105.167;  -10.721;  728.487
478.038;   99.597;   -9.818;  692.513
478.627;  100.693;   -9.887;  714.852
479.216;  108.210;  -10.030;  769.441
479.805;  111.318;   -9.401;  783.375
480.393;  111.446;   -5.739; 1008.945
480.982;  109.752;   -7.838;  874.501
481.571;  116.953;   -9.111;  858.333
482.159;  117.179;  -10.601;  705.386
482.748;  117.433;   -8.500;  821.385
483.336;  122.612;   -9.241;  858.209
483.925;  123.532;  -10.440;  774.373
484.513;  130.691;  -11.063;  758.962
485.102;  126.289;   -9.540;  810.965
485.690;  136.565;   -6.742; 1011.050
486.278;  138.134;   -8.442;  979.329
486.867;  138.041;  -10.472;  809.662
487.455;  140.963;   -8.811;  898.229
488.043;  142.950;  -10.721;  748.361
488.631;  152.559;  -10.393; 1005.079
489.220;  156.301;  -10.843;  908.626
489.808;  157.099;  -10.572;  741.415
490.396;  166.551;  -10.482;  914.645
490.984;  173.870;  -11.542;  830.161
491.572;  185.871;   -8.463;  940.315
492.160;  193.366;   -8.491;  919.081
492.748;  207.093;   -9.681;  884.341
493.336;  232.023;  -10.493; 1019.693
493.924;  262.045;   -9.354;  958.077
494.512;  299.754;   -9.132; 1066.638
495.100;  352.100;   -9.001; 1103.280
495.687;  421.468;  -11.924; 1206.373
496.275;  517.007;  -11.193; 1150.796
496.863;  608.347;   -9.241; 1281.171
497.451;  723.552;  -11.341; 1386.805
498.038;  875.256;  -11.364; 1556.729
498.626; 1012.331;   -8.104; 1741.407
499.214; 1218.949;   -8.842; 2016.609
499.801; 1526.259;  -10.112; 2220.633
500.389; 1799.243;  -11.953; 2312.494
500.976; 2040.541;  -10.023; 2744.849
501.564; 2373.600;   -8.662; 3148.565
502.151; 2772.674;  -10.531; 3515.999
502.738; 3225.803;  -13.853; 3971.274
503.326; 3870.506;  -10.794; 4403.796
503.913; 4373.314;   -8.663; 5161.749
504.500; 5144.905;  -10.172; 5986.420
505.088; 6252.904;  -13.472; 6381.201
505.675; 6892.091;  -10.924; 6925.547
506.262; 6887.975;   -8.551; 7619.060
506.849; 7379.299;  -10.523; 8733.969
507.436; 8389.417;  -10.834; 9790.121
508.023; 8913.008;   -9.093; 9985.472
508.610; 9152.143;  -10.073;10434.618
509.197;10322.173;   -9.500;11198.435
509.784;12152.898;  -13.242;12391.194
510.371;13162.523;  -10.964;13603.713
510.958;13611.588;   -9.772;14426.586
511.545;14023.610;   -7.842;15243.775
512.132;14035.109;  -12.184;15945.876
512.719;15287.051;   -9.733;16340.369
513.305;18518.137;   -9.172;18011.766
513.892;20123.250;   -9.581;19754.971
514.479;21328.590;  -10.253;20967.805
515.066;22491.482;   -8.183;22299.793
515.652;23460.373;   -9.253;22908.660
516.239;25205.607;   -9.412;23798.875
516.825;26698.949;  -11.153;25567.275
517.412;26816.514;  -10.263;28154.959
517.998;26871.563;   -8.802;28344.111
518.585;27691.535;  -10.401;27134.219
519.171;27148.764;  -12.744;27268.576
519.758;27835.840;  -11.793;28964.129
520.344;31035.480;   -8.912;30664.494
520.930;34747.980;  -10.901;32550.605
521.516;35061.355;  -12.034;35422.895
522.103;35603.195;  -10.473;38280.004
522.689;37181.051;   -8.311;37835.117
523.275;39385.047;  -10.691;37288.613
523.861;41391.410;  -11.193;37281.395
524.447;38887.941;  -11.484;37846.949
525.033;38843.777;   -7.702;38321.949
525.619;39083.160;  -11.241;38579.285
526.205;39278.020;  -12.152;40622.875
526.791;40482.055;  -11.423;42258.836
527.377;40765.949;   -7.981;42966.902
527.963;41455.539;   -9.450;42018.949
528.549;41425.441;  -11.351;42476.828
529.135;40964.211;  -10.202;41854.852
529.721;42710.926;   -8.672;41237.711
530.306;42701.348;   -9.111;41259.445
530.892;43912.379;  -11.252;41506.047
531.478;47366.242;  -10.432;43559.613
532.063;49555.559;  -10.721;47695.563
532.649;50180.449;   -7.450;50808.324
533.235;51594.984;  -11.811;51787.500
533.820;50369.246;   -9.383;52145.035
534.406;47829.281;   -9.400;51133.488
534.991;46616.395;   -8.861;49996.805
535.576;47983.555;  -10.612;48882.852
536.162;46134.492;   -7.322;46942.285
536.747;44903.137;   -9.360;45711.746
537.333;45743.387;  -10.450;48510.180
537.918;48637.121;  -12.610;50439.891
538.503;49299.609;  -12.132;50863.711
539.088;46036.461;  -10.831;50906.922
539.673;44616.051;  -11.220;52621.965
540.259;49132.691;  -11.481;52368.094
540.844;50048.008;  -11.462;50879.109
541.429;50744.926;   -7.869;52077.777
542.014;49227.949;  -11.859;52716.695
542.599;47653.398;  -11.061;52363.281
543.184;48675.445;  -12.300;53187.137
543.769;49788.852;   -9.369;54697.605
544.354;51240.984;  -12.020;53913.914
544.938;46801.117;  -10.350;49680.164
545.523;42715.418;  -10.841;47386.277
546.108;45469.672;   -8.579;49151.949
546.693;48203.957;   -8.818;51384.637
547.278;50061.395;  -11.331;51853.254
547.862;49304.949;  -10.292;51173.750
548.447;46589.051;   -8.349;51691.395
549.031;45926.961;  -10.838;52456.703
549.616;47770.801;  -11.681;52714.516
550.201;50660.199;  -11.140;52414.598
550.785;49279.441;   -8.649;52355.059
551.370;48468.387;  -11.889;54589.453
551.954;49736.586;  -11.239;58267.348
552.538;51575.918;   -8.850;59062.176
553.123;54104.637;  -10.829;58115.285
553.707;55507.023;   -8.887;56556.285
554.291;52468.340;  -10.430;56201.668
554.876;49943.957;   -9.799;55335.762
555.460;47256.082;  -10.018;54155.703
556.044;45951.418;   -7.307;53721.484
556.628;49489.094;  -12.229;53731.016
557.212;50710.754;   -9.820;54312.531
557.796;48588.363;   -9.109;53797.773
558.380;45100.148;   -9.707;56145.984
558.964;45718.508;  -10.980;57277.930
559.548;49530.355;  -12.010;56459.641
560.132;50369.543;   -7.928;54434.543
560.716;52912.434;  -10.247;54800.617
561.300;53931.168;  -11.250;57606.945
561.884;52124.488;  -10.568;58972.445
562.467;51993.711;   -9.727;57327.570
563.051;49234.379;  -11.847;54962.434
563.635;47611.148;  -10.747;52594.473
564.219;46288.969;  -13.108;50610.410
564.802;43379.801;  -11.417;49551.180
565.386;41230.422;  -10.457;48370.953
565.969;43343.020;   -8.959;48178.871
566.553;43357.656;  -10.328;49957.305
567.136;43646.820;  -10.257;50369.594
567.720;43875.180;  -10.186;49492.004
568.303;42599.148;  -10.027;50616.352
568.887;42680.031;  -10.397;50727.148
569.470;44203.371;   -8.185;51698.379
570.053;43544.781;  -11.596;52122.078
570.637;42288.008;  -11.378;52536.438
571.220;42569.879;   -9.138;51186.098
571.803;41520.484;   -7.675;51032.762
572.386;38732.469;   -8.976;49609.887
572.969;39191.105;  -12.477;48285.926
573.552;40059.637;   -9.767;47624.285
574.135;39342.246;   -8.175;45498.641
574.718;34441.883;  -11.096;41970.434
575.301;33410.199;  -11.966;41447.137
575.884;32378.516;  -12.836;40923.836
576.467;37810.285;   -9.116;45267.723
577.050;40231.973;  -10.536;48175.543
577.633;40722.418;  -11.027;47729.328
578.216;39132.031;   -9.946;47579.793
578.799;37441.609;   -9.645;47820.996
579.381;37634.391;   -9.446;48115.551
579.964;38508.445;  -12.217;47333.766
580.547;39326.254;  -10.586;46668.969
581.129;38755.465;   -8.374;44466.141
581.712;36860.457;  -10.434;44164.922
582.294;35914.023;  -10.896;46477.855
582.877;36929.816;   -8.906;48244.254
583.459;38510.875;   -9.994;47437.895
584.042;38360.766;  -10.084;46943.219
584.624;36922.664;  -13.534;46792.227
585.206;34946.688;  -12.716;46557.250
585.789;35655.559;  -11.614;45793.773
586.371;36750.684;  -10.203;43836.391
586.953;35457.293;  -10.314;42972.492
587.536;33522.180;   -9.776;42487.211
588.118;34028.699;   -9.821;42086.414
588.700;35219.473;  -10.073;43389.930
589.282;36695.973;  -12.395;43646.039
589.864;34776.211;  -11.514;43438.109
590.446;34831.672;  -10.803;43151.926
591.028;36337.074;  -11.043;42781.867
591.610;36647.227;  -13.244;42839.098
592.192;33164.590;  -11.095;42820.402
592.774;30499.473;  -10.823;40724.277
593.356;29653.518;  -11.052;39874.789
593.937;32186.949;  -11.664;39980.648
594.519;35172.211;  -10.454;42069.633
595.101;36143.512;  -10.322;42976.031
595.683;34797.340;  -10.042;44084.441
596.264;32926.824;  -14.334;43478.797
596.846;33022.402;  -10.863;43803.672
597.427;33884.945;   -9.901;42986.934
598.009;34577.578;  -10.911;42832.219
598.591;35891.477;  -10.483;42580.086
599.172;34677.379;   -9.663;43061.805
599.753;32248.281;  -10.631;41691.469
600.335;31214.117;   -9.371;40692.520
600.916;32408.818;  -13.992;39982.422
601.498;34119.234;   -8.352;40318.617
602.079;32365.328;   -8.411;40670.609
602.660;33586.004;  -10.841;41450.898
603.241;36161.527;  -12.963;41137.738
603.823;35357.348;  -11.523;38868.797
604.404;33167.020;  -11.881;38182.785
604.985;32659.701;  -11.721;38078.047
605.566;33975.074;   -9.293;38056.633
606.147;34001.809;  -10.940;37020.418
606.728;32528.523;  -11.840;37883.359
607.309;31322.402;  -11.781;38748.273
607.890;31778.619;  -11.262;38850.230
608.471;31458.998;  -10.111;37457.918
609.051;31207.033;   -7.709;36066.457
609.632;32061.047;  -12.409;35991.074
610.213;31367.105;  -10.811;37402.641
610.794;30410.301;  -11.630;38383.363
611.374;31577.150;   -8.030;40562.387
611.955;32839.367;  -10.809;38533.727
612.536;34482.895;  -10.531;36951.789
613.116;35003.387;  -12.820;37197.891
613.697;33746.387;  -11.419;38411.125
614.277;33075.996;   -9.768;38673.938
614.858;33620.324;  -10.251;37075.863
615.438;30306.645;  -11.981;35092.906
616.019;27458.799;   -8.978;33666.301
616.599;30127.070;  -12.219;34189.023
617.179;33736.734;  -14.170;36952.047
617.760;35131.859;   -9.211;39582.574
618.340;35286.258;   -9.018;38943.977
618.920;34129.766;   -9.249;37594.156
619.500;33057.480;  -12.728;37866.938
620.080;34770.008;  -12.939;37869.043
620.660;34491.070;  -11.586;36868.617
621.241;33278.656;  -11.538;36352.309
621.821;33816.809;  -11.398;35459.520
622.401;34348.168;  -10.179;35207.414
622.980;35309.961;  -11.587;35980.422
623.560;34568.570;  -12.888;37351.328
624.140;32251.031;  -13.149;34388.582
624.720;27465.465;   -9.928;32368.764
625.300;26726.838;  -10.869;32638.629
625.880;31448.982;   -8.617;34599.035
626.459;36706.387;  -12.138;36831.738
627.039;38740.754;  -12.267;38299.098
627.619;38231.199;   -7.476;38289.574
628.198;38730.910;  -11.347;37220.695
628.778;38283.152;  -11.678;37632.563
629.357;36013.238;  -12.438;38003.012
629.937;33641.961;   -9.576;38402.039
630.516;32552.398;  -11.096;37868.801
631.096;31848.766;  -11.828;35760.410
631.675;31658.736;  -11.565;35225.219
632.254;31448.545;  -11.845;35130.289
632.834;32225.027;  -11.545;35794.570
633.413;33129.191;  -10.887;35788.922
633.992;35101.398;  -10.175;34532.863
634.571;34468.801;   -9.704;33590.113
635.151;32116.201;  -10.815;34943.863
635.730;31386.076;  -11.617;35352.523
636.309;30152.176;  -10.836;35366.605
636.888;30609.236;   -9.755;36165.637
637.467;31552.232;  -11.684;37515.902
638.046;33527.504;  -11.987;39288.695
638.625;34934.336;  -10.455;38279.699
639.204;34699.758;  -11.234;37741.598
639.782;32102.602;  -12.023;38364.551
640.361;29630.475;  -11.506;36740.621
640.940;29276.938;  -12.316;34950.082
641.519;31176.955;  -11.616;34137.398
642.097;34980.129;   -9.266;35654.258
642.676;35931.715;  -12.936;35637.957
643.255;34542.461;   -9.966;36567.074
643.833;33759.809;   -8.916;37809.434
644.412;34812.234;  -10.936;37337.293
644.990;37744.008;  -12.176;37018.531
645.569;38772.273;  -12.246;36518.469
646.147;38041.219;  -12.107;36186.430
646.726;36702.074;  -12.937;36267.688
647.304;38364.688;  -12.547;36647.625
647.882;39444.449;  -12.597;39286.742
648.461;37704.934;   -9.427;39157.703
649.039;35358.547;   -8.937;35412.883
649.617;33036.402;  -11.067;34744.918
650.195;33478.875;  -10.657;35403.098
650.773;33234.043;  -10.097;35053.797
651.352;30908.697;  -11.887;33756.816
651.930;26433.580;  -13.557;31868.773
652.508;23077.330;  -11.767;33121.551
653.086;24228.326;  -10.777;33564.793
653.663;28069.666;  -12.067;34054.668
654.241;31003.316;  -14.918;35693.309
654.819;32556.842;  -11.788;36422.906
655.397;32055.379;  -11.268;38213.484
655.975;33049.426;  -11.738;39507.625
656.553;32306.645;  -11.018;39498.223
657.130;31092.881;  -12.848;40395.480
657.708;30353.061;  -10.098;39242.020
658.286;30615.521;  -11.678;38920.020
658.863;33084.352;  -11.498;40202.898
659.441;36134.309;  -11.008;39677.938
660.018;36948.973;  -11.048;40413.355
660.596;36722.773;  -12.058;39931.414
661.173;35697.043;  -14.158;39604.531
661.750;35189.059;  -12.298;39700.070
662.328;34251.695;  -10.699;39292.809
662.905;32230.910;  -12.119;38235.648
663.482;27201.314;  -11.829;36212.305
664.060;25984.434;  -11.009;35944.945
664.637;28760.090;  -10.369;35170.785
665.214;29365.699;  -10.459;34197.523
665.791;28176.938;  -12.599;34549.520
666.368;28163.543;  -12.919;35118.578
666.945;30154.609;  -10.699;36019.418
667.522;31573.605;  -11.359;36048.438
668.099;31988.414;  -13.529;36243.914
668.676;32103.717;  -10.229;35958.875
669.253;32089.381;   -9.279;37384.730
669.830;30700.305;  -11.370;36779.629
670.407;30367.584;  -10.950;35231.289
670.984;31438.457;  -12.850;35544.270
671.560;30823.996;   -8.440;35466.867
672.137;29444.248;  -13.520;34280.863
672.714;29061.838;  -13.620;34632.863
673.290;30035.977;  -10.450;35135.422
673.867;29796.969;  -10.960;36114.480
674.443;28635.795;  -13.300;36152.859
675.020;29268.053;  -12.370;35327.238
675.596;30039.512;  -11.250;35795.176
676.173;30438.713;  -11.080;35430.355
676.749;30373.453;  -13.220;33549.516
677.326;32811.168;  -13.000;32210.012
677.902;34814.098;  -12.701;32068.871
678.478;35150.055;  -12.801;32583.891
679.054;34485.297;   -8.601;32088.928
679.631;34605.285;  -12.631;30978.848
680.207;33890.770;   -9.451;33160.887
680.783;32553.875;  -11.701;35570.363
681.359;32246.557;  -12.701;36125.184
681.935;32131.408;  -13.271;35240.922
682.511;31352.799;  -10.791;34429.961
683.087;31370.512;  -10.791;34463.680
683.663;31431.871;   -8.121;34648.898
684.239;33077.570;  -13.261;34546.457
684.815;32960.625;  -10.581;35586.375
685.390;29881.027;   -9.961;35821.895
685.966;28705.057;  -11.182;35085.871
686.542;28221.051;  -13.512;34198.230
687.118;28202.254;  -11.472;32847.707
687.693;28272.391;  -10.152;32794.027
688.269;29045.295;  -14.442;33072.367
688.844;30619.635;  -11.852;33141.664
689.420;29197.527;  -13.942;33965.742
689.995;28116.416;   -9.702;34655.523
690.571;28067.396;  -11.312;33576.742
691.146;27348.740;  -14.332;32657.219
691.722;27938.705;  -11.192;32526.979
692.297;30622.473;  -10.962;33014.617
692.872;30246.684;  -11.082;34012.254
693.448;29009.244;  -14.732;34237.434
694.023;28676.414;  -12.363;34142.672
694.598;28831.002;  -12.393;34132.031
695.173;27856.041;  -11.023;34205.250
695.748;27171.070;  -12.743;32882.488
696.323;28385.361;  -11.103;32864.906
696.898;29406.695;   -8.123;33170.004
697.473;29157.229;  -12.603;32432.984
698.048;29288.174;  -12.553;31649.303
698.623;30983.361;  -12.573;30778.141
699.198;34623.605;  -12.743;31140.119
699.773;32606.191;  -12.843;31764.299
700.348;31088.898;  -16.683;31780.816
700.922;31344.742;  -11.403;32046.375
701.497;31921.064;  -11.253;32603.574
702.072;32325.613;  -10.044;34799.871
702.646;32194.455;  -13.054;35793.172
703.221;30766.158;  -11.414;35201.590
703.795;30644.191;  -10.644;34764.527
704.370;32230.471;  -13.484;34307.367
704.944;32481.098;  -12.144;33509.887
705.519;31491.457;  -12.024;31388.584
706.093;30194.945;  -11.234;31340.104
706.668;28308.137;   -9.874;32630.281
707.242;27375.236;  -12.404;32728.779
707.816;27647.578;  -10.644;32947.238
708.390;27010.676;  -11.174;33277.855
708.965;26863.945;  -10.324;33834.336
709.539;26807.215;  -12.014;33709.273
710.113;27026.328;  -12.295;33044.313
710.687;28189.465;  -10.965;31953.992
711.261;29077.820;  -13.685;30505.949
711.835;28542.838;  -15.335;30262.369
712.409;27920.475;  -13.785;31254.447
712.983;28232.393;  -10.525;32754.986
713.557;29633.039;  -13.175;34018.824
714.131;30901.283;  -13.245;34579.625
714.704;32856.000;  -13.175;33890.262
715.278;35415.336;  -11.545;33531.102
715.852;35128.289;  -10.975;33601.660
716.425;33356.949;  -10.075;33515.117
716.999;32404.668;  -12.185;33185.555
717.573;32654.154;   -9.685;33905.996
718.146;34591.887;  -10.516;35199.293
718.720;31936.508;  -12.106;35060.551
719.293;30264.877;  -12.386;34973.230
719.867;33704.840;  -12.456;36394.449
720.440;34359.809;  -10.686;36663.008
721.013;34209.492;  -12.596;35102.426
721.587;33970.160;  -13.956;33985.266
722.160;33500.715;   -9.806;33524.965
722.733;33443.105;  -11.676;32987.043
723.306;32720.045;  -14.276;33066.301
723.880;32434.793;  -12.126;33399.500
724.453;33883.074;  -10.156;33468.297
725.026;32505.963;  -12.956;33816.637
725.599;29969.975;  -11.676;32797.996
726.172;28284.123;  -12.337;33187.434
726.745;28791.063;  -11.277;35136.613
727.318;29006.670;  -11.927;35751.730
727.891;27967.254;  -13.607;35890.430
728.463;27928.215;  -11.327;34822.090
729.036;26825.563;  -11.917;32895.086
729.609;26696.695;  -12.697;31823.225
730.182;27278.992;  -11.787;31445.283
730.754;27660.393;  -12.957;32373.223
731.327;28622.088;  -11.017;33676.820
731.900;27585.234;  -12.797;33417.000
732.472;25827.797;  -10.677;31978.498
733.045;25047.705;  -12.797;30368.777
733.617;26091.936;  -13.908;30574.215
734.190;26361.734;  -12.258;31280.975
734.762;27032.160;  -13.438;31674.412
735.334;27577.207;  -11.758;31247.291
735.907;27336.613;  -11.158;29876.211
736.479;28727.674;  -11.258;29808.488
737.051;31434.250;  -10.918;30233.547
737.623;32645.580;  -11.038;31469.086
738.195;32721.133;  -12.188;31784.225
738.768;29036.432;  -11.378;32120.523
739.340;27298.926;  -12.598;32094.342
739.912;29237.084;  -11.568;31312.680
740.484;30470.117;   -9.348;31946.238
741.056;29644.311;  -12.628;32984.059
741.628;28837.311;  -13.349;33897.715
742.199;28769.369;  -11.309;33213.016
742.771;27641.273;  -12.699;31369.113
743.343;28344.025;  -11.919;31865.473
743.915;28663.928;  -11.679;32388.631
744.487;27783.418;  -12.249;31079.568
745.058;26392.457;  -11.119;30570.107
745.630;25228.316;   -9.439;29970.127
746.201;25863.504;  -11.949;29186.766
746.773;26821.084;  -12.639;28805.723
747.344;26395.189;  -11.039;29591.223
747.916;25084.740;  -12.549;31412.201
748.487;23769.959;  -12.659;32194.898
749.059;22573.938;  -13.059;32533.719
749.630;24147.465;  -12.080;32158.518
750.201;24605.789;  -13.100;30855.395
750.773;23812.811;  -15.310;28622.555
751.344;22923.717;  -12.240;28405.732
751.915;22085.289;  -11.960;28461.551
752.486;21224.273;  -13.200;27842.850
753.057;20968.084;  -15.230;27845.008
753.628;21496.770;  -13.130;27728.107
754.199;21862.578;  -12.720;27381.086
754.770;21502.670;  -10.680;25882.203
755.341;21397.756;  -11.010;25886.184
755.912;20994.158;  -12.990;26050.861
756.483;19736.619;  -11.110;26798.779
757.054;19088.996;  -12.190;27048.238
757.625;19621.338;  -13.981;26294.838
758.195;19400.064;  -11.041;26142.076
758.766;19904.488;  -11.861;26392.234
759.337;20604.977;  -11.461;26334.594
759.907;21720.699;  -15.001;27579.652
760.478;21702.121;   -9.681;28352.770
761.048;20992.328;  -12.421;27325.088
761.619;20648.369;  -11.761;26460.428
762.189;19249.146;  -12.391;26029.826
762.760;18115.967;  -10.201;26430.145
763.330;18137.883;  -10.811;26670.902
763.900;20484.080;  -10.261;26603.021
764.471;21637.127;  -13.061;25542.740
765.041;19909.631;  -11.051;24358.459
765.611;19259.738;  -11.032;23991.297
766.181;18774.412;  -10.532;24470.236
766.751;18616.803;  -13.502;24845.975
767.321;18669.299;  -11.392;24533.633
767.891;18832.320;  -11.522;24916.492
768.461;19268.213;  -13.672;24776.771
769.031;19028.953;  -14.652;24757.988
769.601;18500.893;  -10.182;24181.088
770.171;17423.291;  -11.752;23670.387
770.741;15455.991;  -12.272;22960.045
771.311;14728.946;  -13.112;22917.523
771.880;15045.985;  -14.122;23562.941
772.450;15965.317;  -11.782;24216.500
773.020;18155.182;  -12.642;24140.398
773.589;18463.434;  -13.043;24414.857
774.159;16512.100;  -11.783;23858.717
774.729;15199.926;  -13.473;22942.135
775.298;15695.325;  -14.523;22324.033
775.867;16501.982;  -12.013;21140.313
776.437;15988.353;  -12.113;20838.092
777.006;14780.607;  -13.543;20599.510
777.576;13660.551;  -12.523;20508.809
778.145;12862.178;  -12.173;20732.947
778.714;13457.047;  -12.153;21062.465
779.283;13851.672;  -11.833;20949.664
779.853;14722.875;  -13.483;20508.623
780.422;15654.185;  -12.933;20649.082
780.991;15305.706;  -13.173;21527.520
781.560;13550.723;  -10.224;22632.658
782.129;12640.016;  -12.684;23048.277
782.698;13657.905;  -11.284;23438.555
783.267;14895.310;  -11.684;23267.734
783.836;14427.420;  -10.974;22415.133
784.404;13077.657;  -13.534;20443.152
784.973;12741.421;  -16.734;19699.150
785.542;12627.739;  -12.594;19763.828
786.111;12189.837;  -11.644;20341.408
786.679;12388.351;  -11.384;20207.967
787.248;13091.007;  -12.014;19516.465
787.817;12122.021;  -12.804;18900.363
788.385;11009.003;  -11.994;17879.121
788.954;11246.389;  -12.564;17658.301
789.522;12622.411;  -12.225;17788.879
790.090;13027.885;  -13.775;18118.277
790.659;12202.836;  -12.485;18338.736
791.227;11420.146;  -12.295;18508.615
791.795;11358.705;  -13.415;17898.254
792.364;10822.091;  -12.995;17295.133
792.932;10470.423;   -8.365;16822.051
793.500;10703.147;  -11.925;17040.148
794.068;11151.694;  -13.245;17179.787
794.636;11417.224;  -13.815;16664.246
795.204;10765.467;  -13.375;16524.545
795.772;10396.860;  -12.125;17274.564
796.340;10595.042;  -13.855;17891.002
796.908;10967.523;  -13.456;17648.561
797.476;10580.653;  -13.116;17064.080
798.044; 9829.686;  -13.226;16672.777
798.612;10187.457;  -11.236;17023.996
799.180;11255.755;  -10.476;16561.615
799.747;11412.742;  -11.746;15962.773
800.315;10466.975;  -12.366;15296.992
800.883; 9458.010;  -14.616;14801.771
801.450; 9005.248;  -11.996;14534.430
802.018; 9717.802;  -11.206;14173.248
802.585; 9647.234;  -12.466;14029.547
803.153; 8883.602;  -12.846;13836.846
803.720; 8606.304;  -12.136;13567.324
804.287; 8334.819;  -10.966;13360.622
804.855; 8296.635;   -9.797;13681.981
805.422; 8192.935;  -13.037;13536.560
805.989; 7964.297;  -12.697;13355.958
806.556; 8090.500;  -11.737;13747.896
807.124; 8410.620;  -11.997;13987.376
807.691; 8018.800;  -13.997;14038.674
808.258; 7729.011;  -10.927;14120.152
808.825; 8109.737;  -13.727;13860.111
809.392; 8570.807;  -11.847;13268.790
809.959; 8170.152;  -14.217;12680.389
810.526; 7344.546;   -8.277;12427.308
811.093; 6986.694;   -9.647;12030.105
811.659; 6904.416;  -10.987;11653.664
812.226; 6619.896;  -13.447;11637.183
812.793; 6726.680;  -14.418;11611.521
813.360; 7132.807;  -13.908;11885.181
813.926; 7262.825;  -12.918;12770.539
814.493; 7054.930;  -14.888;12677.638
815.060; 7085.271;  -12.758;11974.336
815.626; 7442.275;  -13.478;11594.715
816.193; 7590.360;  -13.898;11579.474
816.759; 7418.350;  -13.588;11666.972
817.325; 7419.050;  -12.018;11325.530
817.892; 7167.370;  -14.068;11105.369
818.458; 6416.180;  -13.458;10843.928
819.024; 6056.774;  -11.968;10714.406
819.591; 5753.267;  -11.028;10469.165
820.157; 5461.073;  -12.088;10235.523
820.723; 5422.649;  -12.599;10847.563
821.289; 5632.408;  -10.419;11040.980
821.855; 6225.092;  -10.939;10357.100
822.421; 6835.421;  -12.539; 9978.918
822.987; 6849.901;  -13.259; 9754.177
823.553; 6254.073;  -15.369;10065.755
824.119; 5969.268;  -10.779;10036.294
824.685; 5642.774;   -9.999;10029.192
825.251; 5316.619;  -11.819;10199.230
825.816; 5071.888;  -13.369; 9820.189
826.382; 5117.927;  -12.679; 9297.248
826.948; 5414.275;  -11.199; 9381.347
827.513; 5412.730;  -11.179; 9450.726
828.079; 5312.233;  -13.489; 9472.444
828.645; 5525.147;  -12.500; 9292.643
829.210; 5874.046;  -15.120; 9065.341
829.776; 5879.134;  -12.590; 9132.620
830.341; 5705.564;  -11.540; 9092.878
830.906; 5587.023;  -12.400; 9078.557
831.472; 5450.606;  -12.720; 8534.535
832.037; 5109.549;  -11.490; 8677.874
832.602; 4680.092;  -14.380; 8628.692
833.167; 4761.766;  -12.780; 8879.031
833.733; 4966.078;  -11.100; 9189.790
834.298; 5152.724;  -12.080; 9052.608
834.863; 5291.280;  -13.910; 8895.087
835.428; 5143.343;  -13.470; 8824.266
835.993; 5339.717;  -11.760; 8845.385
836.558; 5685.403;  -12.731; 8888.563
837.123; 5853.092;  -12.431; 8966.582
837.688; 5674.289;  -11.241; 8617.860
838.253; 5366.362;  -13.681; 8590.699
838.817; 4991.663;  -12.531; 8443.797
839.382; 4941.194;  -12.671; 8799.356
839.947; 4969.736;  -11.541; 8810.595
840.511; 4826.365;  -12.021; 8796.394
841.076; 4819.273;  -13.071; 8347.231
841.641; 4830.325;  -11.411; 8224.330
842.205; 4596.907;  -13.671; 8223.349
842.770; 4408.737;  -11.291; 8622.107
843.334; 4471.819;  -12.951; 8410.386
843.898; 4564.178;  -11.221; 8337.465
844.463; 4547.897;  -11.322; 8506.283
845.027; 4414.954;  -11.412; 8280.962
845.591; 4176.913;  -11.512; 8231.141
846.156; 4309.107;  -14.042; 7969.179
846.720; 4588.455;  -12.152; 7768.278
847.284; 4560.462;  -10.922; 7630.957
847.848; 4267.505;  -10.962; 7472.395
848.412; 3903.622;  -14.612; 7437.394
848.976; 3817.420;  -11.492; 7674.592
849.540; 3831.052;   -9.172; 7836.011
850.104; 4037.791;  -11.232; 7913.669
850.668; 4493.753;  -15.182; 7694.508
851.232; 4354.267;  -15.332; 7756.887
851.796; 3919.535;  -13.703; 7926.545
852.359; 3899.956;  -11.113; 7827.844
852.923; 4007.779;  -11.843; 7641.163
853.487; 3985.668;  -11.173; 7342.501
854.050; 3846.181;  -13.443; 7042.820
854.614; 3613.123;  -13.823; 7151.338
855.177; 3483.254;  -16.393; 7105.077
855.741; 3584.610;  -11.693; 6989.675
856.304; 3693.912;  -10.843; 6596.634
856.868; 3665.601;  -13.783; 6356.272
857.431; 3480.524;  -11.953; 6468.571
857.995; 3311.916;  -13.683; 6373.210
858.558; 3312.314;  -11.433; 6324.448
859.121; 3309.823;  -12.493; 6408.327
859.684; 3229.851;  -12.384; 6347.886
860.247; 3142.132;  -14.774; 6321.264
860.810; 3013.424;  -13.154; 6301.903
861.374; 2900.451;  -11.264; 6607.881
861.937; 2856.429;  -15.424; 6408.200
862.500; 2851.914;  -12.854; 6572.639
863.062; 2865.329;  -12.344; 6387.297
863.625; 2868.669;  -13.314; 6190.836
864.188; 2728.389;  -14.724; 5807.254
864.751; 2593.264;  -13.464; 5682.413
865.314; 2539.099;  -11.684; 5547.492
865.876; 2586.226;  -11.104; 5500.150
866.439; 2732.537;  -12.344; 5415.909
867.002; 2755.168;  -13.494; 5501.567
867.564; 2768.466;  -10.935; 5413.946
868.127; 2655.649;  -12.665; 5160.325
868.689; 2457.716;  -14.515; 5133.183
869.252; 2438.166;  -13.425; 5252.382
869.814; 2442.937;  -11.595; 5297.141
870.377; 2428.131;  -12.175; 5390.919
870.939; 2300.771;  -10.265; 5599.898
871.501; 2183.529;  -12.375; 5248.336
872.063; 2165.180;  -14.355; 4854.235
872.626; 2232.181;  -14.435; 4817.074
873.188; 2174.022;  -12.415; 4987.732
873.750; 2130.302;  -14.555; 4868.651
874.312; 2127.247;  -11.185; 4779.330
874.874; 2070.758;  -12.715; 4866.348
875.436; 1941.624;  -13.196; 4718.887
875.998; 1856.792;  -11.426; 4660.005
876.560; 1786.726;   -9.786; 4462.964
877.122; 1783.316;  -12.796; 4145.042
877.683; 1744.484;  -13.226; 4056.481
878.245; 1668.630;  -12.036; 3950.740
878.807; 1581.681;  -11.536; 4058.958
879.369; 1524.369;  -10.806; 3954.677
879.930; 1572.145;  -13.946; 3941.495
880.492; 1696.369;  -11.876; 4067.014
881.053; 1681.021;  -13.216; 3859.633
881.615; 1582.773;  -12.226; 3776.071
882.176; 1534.983;  -12.946; 3734.750
882.738; 1518.155;  -10.736; 3678.489
883.299; 1453.369;  -12.057; 3405.407
883.860; 1340.461;  -12.677; 3351.106
884.422; 1262.910;  -14.097; 3394.044
884.983; 1207.899;  -13.667; 3166.443
885.544; 1150.138;  -10.717; 3189.802
886.105; 1104.682;  -14.357; 3160.360
886.666; 1063.410;  -14.287; 3093.059
887.227; 1021.464;  -14.297; 2941.957
887.788;  990.794;  -13.137; 2974.836
888.349;  932.902;  -14.637; 2721.214
888.910;  871.179;  -12.247; 2696.493
889.471;  865.187;  -10.577; 2560.172
890.032;  859.254;  -12.937; 2558.190
890.593;  838.548;  -12.487; 2567.669
891.153;  817.205;  -11.898; 2460.307
891.714;  779.289;  -14.278; 2372.046
892.275;  757.366;  -13.308; 2309.505
892.835;  722.049;  -12.058; 2382.543
893.396;  644.473;  -15.268; 2295.502
893.956;  591.867;  -13.278; 2162.420
894.517;  569.988;  -11.968; 2125.439
895.077;  574.398;  -12.798; 2086.978
895.638;  563.023;  -11.908; 2126.316
896.198;  550.021;  -13.288; 1838.275
896.758;  526.594;  -12.198; 1892.813
897.319;  499.255;  -13.048; 1792.232
897.879;  469.764;  -13.718; 1762.751
898.439;  435.010;  -14.138; 1661.149
898.999;  398.267;  -13.659; 1781.468
899.559;  374.815;  -14.699; 1703.347
900.119;  356.603;  -14.339; 1537.525
900.679;  330.085;  -11.789; 1638.384
901.239;  303.848;  -13.629; 1527.902
901.799;  287.510;  -13.679; 1456.441
902.359;  277.974;  -13.679; 1357.140
902.919;  270.801;  -14.159; 1331.118
903.479;  260.387;  -13.419; 1317.257
904.038;  243.652;  -14.899; 1262.595
904.598;  230.323;  -14.339; 1152.034
905.158;  221.635;  -13.959; 1240.893
905.717;  217.205;  -12.749; 1233.691
906.277;  214.179;  -11.889; 1217.330
906.836;  207.913;  -12.870; 1222.408
907.396;  202.348;  -11.790; 1193.047
907.955;  194.131;  -13.750; 1182.526
908.515;  184.888;  -14.760; 1099.364
909.074;  180.251;  -12.540; 1092.863
909.633;  175.143;  -12.120; 1069.121
910.192;  169.969;  -12.550; 1196.460
910.752;  165.052;  -12.760; 1029.960
911.311;  161.674;  -14.750; 1009.780
911.870;  159.447;  -13.860;  971.460
912.429;  159.215;  -13.480; 1094.080
912.988;  159.176;  -12.370; 1081.060
913.547;  154.858;  -14.670;  940.380
914.106;  153.645;  -12.800;  999.420
914.665;  153.209;  -11.370;  984.020
915.224;  150.707;  -11.430; 1035.760
915.782;  147.489;  -12.260;  922.560
916.341;  147.010;  -12.540; 1049.840
916.900;  143.760;  -12.540;  925.260
917.458;  140.995;  -13.480;  884.220
918.017;  141.197;  -12.470;  942.600
918.576;  140.308;  -13.450;  904.440
919.134;  139.418;  -12.890;  837.980
919.693;  138.783;  -15.480;  893.060
920.251;  137.418;  -14.420;  876.500
920.809;  137.219;  -12.170;  839.580
921.368;  136.164;  -13.650;  885.360
921.926;  135.704;  -12.750;  842.940
922.484;  136.013;  -14.150;  903.360
923.042;  134.711;  -15.100;  880.340
923.601;  135.646;  -10.990;  998.680
924.159;  134.843;  -12.470;  935.560
924.717;  133.906;  -15.640;  841.080
925.275;  135.621;  -12.380;  903.240
925.833;  134.672;  -12.710;  779.320
926.391;  136.483;  -11.200;  938.380
926.949;  138.118;  -16.000;  857.680
927.506;  137.708;  -12.260;  903.500
928.064;  138.393;  -11.300;  877.580
928.622;  138.710;  -13.750;  880.100
929.180;  139.300;  -15.290;  814.180
929.737;  139.181;  -14.500;  808.540
930.295;  141.752;  -10.630;  928.480
930.853;  144.419;  -14.590;  849.100
931.410;  144.248;  -14.450;  821.120
931.968;  146.843;  -14.390;  940.660
932.525;  148.011;  -13.050;  909.380
933.082;  151.244;  -15.620;  811.440
933.640;  157.964;  -15.650;  925.900
934.197;  161.733;  -13.610;  886.360
934.754;  165.709;  -13.320;  897.780
935.312;  164.524;  -13.370;  863.340
935.869;  167.499;  -12.780; 1012.980
936.426;  166.177;  -14.480;  872.800
936.983;  168.980;  -13.180;  889.020
937.540;  169.416;  -15.710;  838.280
938.097;  170.594;  -14.980;  940.120
938.654;  168.986;  -13.060;  898.860
939.211;  167.016;  -12.760;  952.480
939.768;  169.471;  -16.230;  915.420
940.324;  174.449;  -10.940;  904.200
940.881;  181.325;  -12.570;  878.500
941.438;  185.697;  -13.650; 1021.200
941.995;  183.741;  -13.300;  992.560
942.551;  181.787;  -15.800;  875.620
943.108;  181.170;  -14.180;  937.920
943.664;  174.650;  -13.890;  869.340
944.221;  174.130;  -12.640; 1088.140
944.777;  170.599;  -14.700;  869.680
945.334;  170.367;  -13.010;  884.840
945.890;  171.082;  -13.480;  946.480
946.446;  168.643;  -14.920;  947.020
947.003;  168.484;  -13.860;  964.940
947.559;  170.135;  -12.000; 1063.040
948.115;  170.853;  -10.510; 1026.540
948.671;  168.503;  -12.760;  967.300
949.227;  163.825;  -15.390;  859.560
949.783;  161.228;  -15.570;  858.900
950.339;  163.022;  -12.800;  991.000
950.895;  160.859;  -13.780; 1023.840
951.451;  157.703;  -13.810;  925.280
952.007;  158.036;  -12.390;  998.540
952.563;  156.034;  -11.980;  937.780
953.118;  152.842;  -14.070;  904.940
953.674;  149.525;  -14.140;  935.780
954.230;  150.231;  -12.680;  949.640
954.785;  149.715;  -12.770;  936.640
955.341;  149.916;  -11.450;  998.160
955.897;  145.508;  -15.350;  834.660
956.452;  144.510;  -14.200;  953.840
957.008;  143.962;  -10.820; 1083.640
957.563;  140.202;  -13.200; 1009.540
958.118;  135.197;  -14.460;  877.700
958.674;  134.587;  -13.840;  946.780
959.229;  134.232;  -10.670; 1013.980
959.784;  135.948;  -17.040;  832.400
960.339;  139.191;  -12.970; 1001.280
960.894;  137.688;  -12.700;  963.760
961.449;  135.783;  -13.790;  859.960
962.004;  141.014;  -11.760; 1212.840
962.559;  140.556;  -14.840;  860.140
963.114;  139.667;  -14.530;  742.480
963.669;  142.672;  -12.780;  915.500
964.224;  143.993;  -14.330;  874.340
964.779;  141.150;  -14.380;  828.420
965.334;  136.756;  -12.460; 1017.860
965.888;  130.792;  -13.490;  875.360
966.443;  130.090;  -14.140;  972.380
966.998;  126.722;  -16.240;  819.460
967.552;  123.820;  -12.730;  908.380
968.107;  120.642;  -14.510;  868.300
968.661;  122.454;  -11.850;  922.440
969.216;  120.193;  -14.370;  856.280
969.770;  120.217;  -13.010;  917.200
970.324;  120.040;  -12.460;  923.140
970.879;  120.076;  -11.580;  947.180
971.433;  119.327;  -13.130;  952.720
971.987;  116.924;  -12.360;  895.340
972.541;  115.489;  -14.330;  917.100
973.095;  115.803;  -13.310; 1009.460
973.649;  113.108;  -15.830;  809.480
974.203;  116.434;  -15.830;  829.040
974.757;  119.923;  -13.480;  855.220
975.311;  118.639;  -13.720;  872.600
975.865;  115.307;  -15.780;  881.820
976.419;  111.882;  -14.290;  857.400
976.973;  108.938;  -13.210;  849.620
977.526;  108.761;  -12.300;  949.920
978.080;  104.480;  -14.840;  796.780
978.634;  106.399;  -13.100;  921.320
979.187;  102.919;  -12.300;  905.400
979.741;  100.711;  -12.020; 1018.380
980.294;   94.809;  -14.590;  789.160
980.848;   89.819;  -14.390;  717.220
981.401;   91.010;  -14.280;  816.540
981.955;   91.486;  -11.920;  844.300
982.508;   88.873;  -15.790;  746.340
983.061;   89.782;  -12.070;  915.260
983.615;   86.555;  -13.260;  798.800
984.168;   84.487;  -15.540;  770.080
984.721;   84.338;  -13.230;  880.760
985.274;   82.139;  -11.820;  867.500
985.827;   80.035;  -13.510;  834.220
986.380;   77.280;  -14.840;  721.340
986.933;   78.125;  -13.970;  864.800
987.486;   76.556;  -12.450;  861.920
988.039;   74.624;  -11.170;  863.100
988.591;   72.856;  -13.070;  893.260
989.144;   68.948;  -15.530;  737.260
989.697;   68.253;  -14.300;  758.740
990.250;   67.635;  -13.310;  858.100
990.802;   66.168;  -14.490;  755.860
991.355;   67.919;  -12.980;  974.880
991.907;   65.596;  -13.715;  864.320
992.460;   63.273;  -14.450;  753.760
993.012;   63.473;  -12.590;  749.540
993.565;   62.548;  -15.180;  711.360
994.117;   63.012;  -11.630;  950.780
994.669;   59.787;  -13.760;  701.320
995.221;   59.591;  -12.710;  791.920
995.774;   58.772;  -14.620;  787.580
996.326;   56.699;  -13.150;  740.220
996.878;   57.657;  -12.880;  838.420
997.430;   55.871;  -14.580;  699.860
997.982;   55.941;  -14.030;  750.140
998.534;   55.201;  -12.190;  739.060
999.086;   52.733;  -12.990;  738.220
999.638;   51.876;  -13.180;  661.380
1000.190;   51.825;  -14.970;  699.320
1000.741;   51.326;  -12.200;  742.700
1001.293;   50.777;  -13.400;  686.020
1001.845;   51.034;  -14.490;  676.640
1002.396;   51.874;  -15.280;  743.400
1002.948;   50.649;  -12.380;  737.400
1003.500;   49.411;  -13.260;  723.780
1004.051;   50.400;  -13.730;  907.580
1004.603;   49.128;  -12.300;  791.820
1005.154;   45.175;  -15.330;  608.980
1005.705;   44.699;  -12.800;  723.960
1006.257;   44.390;  -13.900;  707.220
1006.808;   43.001;  -14.430;  685.460
1007.359;   42.680;  -12.010;  763.240
1007.910;   40.893;  -12.690;  646.640
1008.461;   41.575;  -13.610;  732.940
1009.013;   40.649;  -14.990;  588.340
1009.564;   40.600;  -11.860;  793.520
1010.115;   39.093;  -12.640;  597.040
1010.665;   38.749;  -14.570;  602.160
1011.216;   38.491;  -15.190;  667.920
1011.767;   37.998;  -13.470;  697.920
1012.318;   38.677;  -13.760;  736.980
1012.869;   37.436;  -15.950;  679.000
1013.419;   36.968;  -15.880;  603.120
1013.970;   37.448;  -14.540;  666.640
1014.521;   36.017;  -13.220;  620.620
1015.071;   36.933;  -15.020;  670.380
1015.622;   36.238;  -17.510;  635.460
1016.172;   35.751;  -14.130;  596.820
1016.723;   35.298;  -14.220;  614.380
1017.273;   35.455;  -15.370;  604.160
1017.823;   35.604;  -15.290;  650.340
1018.374;   34.855;  -13.420;  611.760
1018.924;   34.303;  -11.740;  716.880
1019.474;   35.066;  -12.250;  718.880
1020.024;   33.446;  -15.850;  657.580
1020.574;   34.421;  -13.280;  726.160
1021.124;   34.090;  -13.560;  673.580
1021.674;   32.454;  -13.790;  559.120
1022.224;   34.113;  -14.610;  708.940
1022.774;   32.985;  -13.100;  668.820
1023.324;   33.322;  -11.470;  753.520
1023.874;   35.444;  -11.990;  875.760
1024.423;   33.095;  -14.550;  613.700
1024.973;   31.674;  -14.440;  610.760
1025.523;   31.177;  -13.250;  620.960
1026.072;   31.428;  -15.200;  606.420
1026.622;   31.152;  -14.590;  675.740
1027.172;   31.856;  -11.080;  715.660
1027.721;   30.377;  -14.010;  601.220
1028.270;   30.221;  -13.690;  663.400
1028.820;   31.122;  -15.380;  638.080
1029.369;   29.972;  -14.980;  612.700
1029.918;   30.264;  -13.100;  649.840
1030.468;   29.254;  -13.680;  564.780
1031.017;   29.955;  -13.770;  634.800
1031.566;   28.313;  -14.100;  608.900
1032.115;   29.608;  -11.770;  694.500
1032.664;   28.559;  -14.940;  596.480
1033.213;   30.219;  -13.370;  735.420
1033.762;   28.751;  -13.660;  635.620
1034.311;   28.273;  -13.650;  677.220
1034.860;   27.958;  -13.820;  691.000
1035.408;   29.219;  -12.860;  722.720
1035.957;   29.236;  -13.060;  719.540
1036.506;   26.075;  -14.510;  530.800
1037.055;   29.427;  -13.470;  844.320
1037.603;   27.670;  -14.800;  664.000
1038.152;   25.834;  -14.190;  534.760
1038.700;   25.803;  -11.810;  585.740
1039.249;   26.376;  -12.850;  681.220
1039.797;   26.696;  -14.610;  633.360
1040.345;   25.788;  -15.220;  705.420
1040.894;   25.599;  -13.480;  625.300
1041.442;   25.368;  -13.310;  632.200
1041.990;   24.808;  -14.510;  559.160
1042.538;   23.897;  -15.700;  536.180
1043.087;   24.162;  -13.910;  570.860
1043.635;   26.128;  -13.620;  670.500
1044.183;   24.437;  -14.230;  586.400
1044.731;   24.585;  -13.730;  576.000
1045.279;   24.211;  -13.970;  674.920
1045.827;   26.704;  -10.750;  892.400
1046.374;   23.383;  -15.230;  515.420
1046.922;   23.050;  -15.390;  590.580
1047.470;   24.319;  -12.320;  691.300
1048.018;   24.642;  -13.230;  647.960
1048.565;   25.492;  -13.390;  708.600
1049.113;   22.585;  -15.030;  557.000
1049.660;   22.447;  -12.540;  629.660
1050.208;   23.224;  -15.040;  675.640
1050.755;   22.327;  -14.680;  606.580
1051.303;   22.549;  -13.610;  686.820
1051.850;   21.997;  -14.340;  635.120
1052.397;   20.474;  -16.330;  473.960
1052.945;   21.418;  -15.710;  617.760
1053.492;   22.565;  -12.320;  741.840
1054.039;   23.133;  -13.730;  720.180
1054.586;   21.489;  -16.140;  557.240
1055.133;   22.493;  -14.020;  693.140
1055.680;   22.271;  -13.430;  646.620
1056.227;   20.429;  -14.570;  542.780
1056.774;   22.718;  -14.400;  794.980
1057.321;   20.556;  -14.230;  523.260
1057.868;   20.628;  -14.220;  651.320
1058.415;   19.983;  -14.060;  651.980
1058.961;   20.596;  -14.640;  678.940
1059.508;   21.300;  -13.970;  643.820
1060.055;   20.014;  -15.100;  581.780
1060.601;   20.609;  -12.180;  624.300
1061.148;   19.645;  -15.010;  616.820
1061.694;   19.976;  -14.750;  592.580
1062.241;   20.077;  -14.130;  596.320
1062.787;   19.477;  -14.770;  663.140
1063.334;   22.005;  -13.130;  808.560
1063.880;   19.586;  -14.420;  668.360
1064.426;   19.220;  -13.130;  706.820
1064.972;   18.534;  -13.960;  601.340
1065.518;   17.323;  -13.680;  566.640
1066.065;   19.056;  -15.720;  624.460
1066.611;   18.540;  -13.970;  598.800
1067.157;   18.069;  -13.920;  641.860
1067.703;   18.795;  -14.760;  668.480
1068.249;   18.281;  -14.490;  605.220
1068.794;   17.500;  -14.740;  626.880
1069.340;   16.876;  -13.220;  578.960
1069.886;   17.986;  -14.930;  590.700
1070.432;   16.770;  -14.700;  541.720
1070.977;   16.319;  -14.470;  601.080
1071.523;   16.767;  -14.330;  573.060
1072.068;   16.424;  -14.960;  582.000
1072.614;   16.528;  -16.220;  527.760
1073.160;   17.612;  -11.280;  687.040
1073.705;   16.143;  -15.990;  572.520
1074.250;   16.977;  -16.550;  559.900
1074.796;   17.165;  -14.600;  655.160
1075.341;   17.960;  -13.440;  664.100
1075.886;   16.660;  -14.450;  594.240
1076.431;   16.336;  -13.160;  649.880
1076.976;   16.470;  -14.710;  639.220
1077.521;   15.468;  -14.000;  583.080
1078.067;   14.589;  -14.470;  579.400
1078.612;   16.209;  -14.530;  661.620
1079.156;   15.507;  -15.660;  601.540
1079.701;   16.634;  -16.120;  693.260
1080.246;   16.318;  -12.960;  696.300
1080.791;   15.440;  -13.700;  625.020
1081.336;   15.934;  -15.540;  659.320
1081.880;   14.894;  -14.640;  649.680
1082.425;   14.195;  -14.220;  573.480
1082.970;   15.536;  -11.890;  717.040
1083.514;   14.262;  -13.820;  597.000
1084.059;   13.529;  -14.280;  586.720
1084.603;   12.714;  -12.890;  565.840
1085.147;   14.396;  -13.590;  645.220
1085.692;   15.432;  -14.050;  716.800
1086.236;   12.180;  -14.990;  503.140
1086.780;   15.312;  -12.640;  751.440
1087.325;   13.862;  -15.550;  654.620
1087.869;   14.590;  -14.980;  610.700
1088.413;   14.120;  -13.440;  705.040
1088.957;   12.225;  -12.170;  543.400
1089.501;   14.657;  -12.730;  766.640
1090.045;   13.998;  -14.650;  726.480
1090.589;   12.178;  -14.500;  569.920
1091.133;   13.058;  -12.320;  673.340
1091.676;   12.852;  -16.130;  591.940
1092.220;   12.388;  -13.930;  600.920
1092.764;   14.222;  -12.820;  706.960
1093.307;   12.801;  -11.700;  673.780
1093.851;   11.763;  -15.600;  556.540
1094.395;   13.020;  -13.920;  683.140
1094.938;   12.071;  -16.090;  632.520
1095.482;   11.577;  -13.820;  559.800
1096.025;   13.377;  -12.720;  710.880
1096.568;   13.403;  -12.100;  779.280
1097.112;    9.667;  -15.450;  508.180
1097.655;   11.708;  -14.310;  603.000
1098.198;   10.119;  -14.740;  600.180
1098.741;   11.269;  -15.550;  612.860
1099.285;   10.941;  -12.600;  657.300
1099.828;    8.781;  -15.050;  439.400
1100.371;   11.137;  -14.800;  608.160
1100.914;   11.606;  -16.480;  682.660
1101.457;   11.530;  -12.990;  679.900
1101.999;    9.663;  -14.110;  584.680
1102.542;   11.002;  -11.450;  641.440
1103.085;    9.878;  -13.350;  658.500
1103.628;   10.555;  -13.200;  762.060
1104.170;    9.621;  -12.310;  588.280
1104.713;   10.247;  -14.320;  646.700
1105.256;    9.404;  -16.110;  557.440
1105.798;    8.060;  -15.910;  499.980
1106.341;   10.453;  -12.200;  728.900
1106.883;    8.689;  -14.910;  521.340
1107.425;    9.991;  -14.960;  668.180
1107.968;    9.500;  -13.440;  612.380
1108.510;   10.397;  -14.010;  684.960
1109.052;    8.137;  -15.430;  612.620
1109.594;    9.250;  -15.290;  554.440
1110.136;    9.371;  -13.360;  643.220
1110.679;    8.701;  -13.820;  633.080
1111.221;    9.276;  -13.690;  604.460
1111.763;    8.093;  -14.890;  559.220
1112.304;    7.545;  -14.550;  547.140
1112.846;    8.270;  -12.760;  666.240
1113.388;   11.838;  -10.780;  942.180
1113.930;    9.427;  -12.690;  694.200
1114.472;    7.919;  -15.730;  606.540
1115.013;    6.127;  -14.620;  551.280
1115.555;    7.441;  -14.950;  587.100
1116.097;    6.998;  -16.460;  579.480
1116.638;    7.872;  -13.730;  684.600
1117.180;    7.332;  -13.810;  667.740
1117.721;    7.640;  -13.280;  568.580
1118.262;    8.359;  -15.080;  677.960
1118.804;    8.566;  -14.040;  637.340
1119.345;    6.110;  -15.430;  578.400
1119.886;    7.812;  -15.240;  704.040
1120.427;    6.863;  -15.820;  589.020
1120.969;    6.923;  -14.550;  597.920
1121.510;    6.107;  -14.030;  563.060
1122.051;    7.219;  -11.990;  723.580
1122.592;    6.321;  -16.490;  655.420
1123.133;    5.563;  -15.580;  547.940
1123.673;    6.809;  -12.850;  706.480
1124.214;    6.879;  -13.630;  612.460
1124.755;    6.993;  -14.830;  639.460
1125.296;    5.886;  -13.110;  627.320
1125.836;    6.535;  -11.320;  691.500
1126.377;    5.302;  -14.330;  599.660
1126.918;    6.746;  -12.800;  614.980
1127.458;    5.289;  -13.580;  622.220
1127.999;    5.728;  -10.330;  656.980
1128.539;    6.680;  -13.390;  694.240
1129.079;    5.224;  -16.420;  632.720
1129.620;    4.625;  -15.700;  558.100
1130.160;    3.546;  -14.790;  539.480
1130.700;    5.259;  -12.910;  640.840
1131.240;    5.687;  -15.610;  643.700
1131.781;    4.696;  -12.920;  619.680
1132.321;    4.888;  -15.300;  599.120
1132.861;    4.002;  -14.760;  564.200
1133.401;    3.926;  -15.470;  593.940
1133.941;    4.461;  -13.710;  626.280
1134.481;    4.275;  -11.820;  597.580
1135.020;    3.817;  -14.810;  609.160
1135.560;    4.965;  -13.660;  674.940
1136.100;    3.433;  -13.940;  501.160
1136.640;    2.831;  -15.410;  510.480
1137.179;    3.028;  -16.920;  537.960
1137.719;    4.139;  -16.430;  605.400
1138.258;    4.044;  -16.300;  587.360
1138.798;    4.419;  -13.710;  663.780
1139.337;    2.819;  -13.840;  482.840
1139.877;    3.949;  -16.140;  642.360
1140.416;    5.935;  -11.410;  878.060
1140.955;    2.504;  -12.820;  535.380
1141.494;    3.526;  -12.310;  669.280
1142.034;    2.801;  -16.280;  583.520
1142.573;    3.528;  -13.090;  646.280
1143.112;    2.307;  -13.770;  553.480
1143.651;    2.441;  -15.830;  536.480
1144.190;    3.956;  -15.010;  691.640
1144.729;    2.228;  -13.650;  607.420
1145.267;    2.875;  -13.670;  584.900
1145.806;    3.722;  -13.630;  637.040
1146.345;    2.032;  -14.160;  635.020
1146.884;    2.864;  -11.180;  622.500
1147.422;    1.511;  -15.890;  533.060
1147.961;    4.029;  -12.760;  708.460
1148.500;    3.435;  -15.220;  669.720
1149.038;    2.998;  -13.720;  632.500
1149.577;    2.643;  -13.250;  698.640
1150.115;    0.394;  -16.790;  452.280
1150.653;    2.518;  -15.810;  607.340
1151.192;    2.511;  -14.730;  552.920
1151.730;    2.424;  -13.660;  652.560
1152.268;    1.625;  -15.120;  589.520
1152.806;    1.182;  -15.580;  571.180
1153.344;    0.766;  -16.210;  577.640
1153.882;    1.577;  -12.810;  600.060
1154.421;   -0.399;  -14.150;  470.620
1154.958;    0.978;  -15.360;  595.240
1155.496;    1.395;  -14.710;  645.280
1156.034;    1.767;  -13.640;  721.880
1156.572;    3.066;  -13.740;  667.060
1157.110;    0.439;  -16.960;  473.940
1157.647;    1.991;  -11.940;  676.960
1158.185;    0.369;  -14.090;  564.320
1158.723;   -0.466;  -13.610;  509.200
1159.260;    1.896;  -14.760;  701.700
1159.798;    2.278;  -13.700;  658.160
1160.335;    0.126;  -13.820;  631.820

