
Integration time [ms]:   3.276
Averaging Nr. [scans]: 1000
Smoothing Nr. [pixels]: 0
Data measured with spectrometer [name]: 7414430SP
Wave   ;Sample   ;Dark     ;Reference
[nm]   ;[counts] ;[counts] ;[counts] 

288.544;  149.941;    7.793;  793.890
289.143;  153.124;    7.462;  681.602
289.742;  153.238;    8.602;  828.814
290.341;  138.943;    1.321;  789.841
290.940;  127.076;   -0.709;  730.702
291.538;  129.006;    0.881;  881.108
292.137;  128.699;    0.122;  792.581
292.736;  133.592;   -1.929;  975.101
293.335;  130.479;   -8.229;  735.086
293.934;  130.237;   -5.279;  781.677
294.532;  128.845;   -1.369; 1031.958
295.131;  114.414;   -7.641;  834.394
295.730;  115.158;   -8.420;  809.588
296.328;  114.255;   -5.611;  783.442
296.927;  115.761;   -5.781;  779.652
297.525;  116.295;   -6.361;  781.236
298.124;  106.521;  -11.382;  654.009
298.722;  109.678;   -7.641;  761.933
299.321;  108.395;   -6.811;  708.597
299.919;  105.796;   -6.991;  751.918
300.518;  103.782;  -10.362;  689.338
301.116;  104.866;   -9.581;  691.381
301.715;  103.300;   -4.891;  730.222
302.313;  103.354;   -8.801;  704.943
302.911;   98.762;   -8.522;  733.830
303.509;  104.081;   -6.171;  925.627
304.108;  101.433;   -7.311;  760.383
304.706;  100.791;   -8.321;  801.664
305.304;   95.072;  -10.222;  796.707
305.902;  101.599;   -6.021;  784.484
306.500;   97.048;   -4.971;  728.200
307.098;   95.207;   -7.061;  746.560
307.696;   92.872;   -8.801;  780.432
308.294;   93.986;   -6.411;  731.359
308.892;   95.939;   -2.901;  759.769
309.490;   92.296;   -5.041;  712.161
310.088;   90.045;   -5.002;  788.444
310.686;   94.554;   -2.041;  821.749
311.284;   90.140;   -2.351;  766.040
311.882;   86.703;   -4.422;  731.225
312.480;   85.015;   -4.192;  697.167
313.078;   86.562;   -1.172;  808.331
313.675;   86.717;   -2.601;  691.600
314.273;   81.645;   -1.312;  797.837
314.871;   81.427;   -3.942;  589.829
315.468;   79.249;   -2.802;  652.090
316.066;   82.599;   -0.701;  694.427
316.664;   75.388;   -4.362;  656.351
317.261;   79.373;   -2.872;  910.128
317.859;   74.727;   -2.022;  768.735
318.456;   74.741;   -0.531;  830.096
319.054;   71.266;   -3.912;  787.828
319.651;   70.056;   -4.752;  759.928
320.249;   69.198;   -2.602;  810.188
320.846;   67.125;   -0.821;  714.286
321.443;   63.693;   -4.642;  832.135
322.041;   61.289;   -5.002;  812.315
322.638;   58.485;   -3.982;  701.456
323.235;   60.872;   -3.411;  665.683
323.833;   58.086;   -7.361;  740.354
324.430;   52.822;   -8.611;  615.900
325.027;   53.839;   -4.061;  876.855
325.624;   52.803;   -4.031;  644.532
326.221;   50.514;   -7.481;  689.717
326.818;   49.942;   -5.281;  818.332
327.415;   53.753;   -7.460;  748.828
328.012;   52.811;   -5.510;  690.585
328.609;   51.310;   -7.880;  731.389
329.206;   49.689;   -8.331;  778.621
329.803;   49.706;   -5.121;  737.841
330.400;   52.314;   -4.510;  704.260
330.997;   53.894;   -6.441;  817.147
331.594;   52.223;   -8.831;  788.185
332.191;   58.082;   -7.621;  728.722
332.787;   59.890;   -4.591;  844.463
333.384;   58.579;   -7.412;  763.093
333.981;   57.955;   -8.293;  815.687
334.578;   61.720;   -7.052;  708.378
335.174;   63.597;   -3.102;  731.469
335.771;   62.481;   -5.943;  836.456
336.367;   60.178;   -7.393;  710.631
336.964;   63.962;   -4.063;  793.266
337.561;   61.304;   -3.813;  731.112
338.157;   57.001;   -4.654;  911.916
338.754;   54.163;   -7.934;  796.589
339.350;   53.227;   -4.414;  722.493
339.946;   54.750;   -4.664;  773.135
340.543;   46.042;   -6.375;  846.136
341.139;   41.500;   -9.815;  720.836
341.735;   39.657;   -4.526;  772.593
342.332;   38.420;   -4.895;  691.472
342.928;   37.921;   -4.295;  795.394
343.524;   32.936;   -5.476;  761.684
344.120;   28.636;   -5.856;  738.562
344.716;   32.747;   -2.155;  723.717
345.313;   30.378;   -6.275;  795.342
345.909;   24.666;   -8.815;  627.336
346.505;   26.955;   -5.305;  740.247
347.101;   27.568;   -2.674;  827.864
347.697;   26.914;   -4.344;  785.398
348.293;   22.106;   -9.975;  627.244
348.889;   22.800;   -5.774;  745.914
349.485;   22.540;   -5.004;  688.205
350.081;   23.232;   -4.704;  772.592
350.676;   18.286;   -6.635;  691.606
351.272;   22.863;   -4.504;  809.530
351.868;   21.993;   -3.914;  780.497
352.464;   18.901;   -9.044;  723.932
353.059;   16.081;   -8.314;  646.017
353.655;   19.130;   -7.024;  777.063
354.251;   19.515;   -5.343;  759.845
354.846;   14.043;   -8.604;  740.646
355.442;   12.409;   -6.945;  753.071
356.038;   14.742;   -7.564;  751.708
356.633;   14.682;   -5.814;  728.594
357.229;   11.859;   -7.364;  724.757
357.824;   11.015;   -8.024;  703.600
358.420;    9.611;   -9.384;  679.726
359.015;   10.641;   -5.104;  695.357
359.610;   11.683;   -6.854;  763.920
360.206;    5.382;  -10.185;  603.240
360.801;    8.610;   -7.054;  646.503
361.396;   10.504;   -5.034;  725.975
361.992;    5.969;   -8.284;  668.220
362.587;    3.972;   -8.625;  670.160
363.182;    4.744;   -7.674;  689.631
363.777;    6.255;   -5.164;  738.242
364.372;    5.391;   -8.604;  737.314
364.967;    2.739;   -9.055;  680.744
365.563;    5.852;   -6.114;  815.567
366.158;    3.457;   -5.814;  685.161
366.753;    3.791;   -7.854;  649.263
367.348;    2.031;   -7.804;  746.056
367.942;    2.198;   -7.954;  697.298
368.537;    1.040;   -4.984;  754.245
369.132;    0.883;   -8.564;  703.428
369.727;   -2.674;   -8.855;  638.079
370.322;   -1.373;   -6.245;  580.186
370.917;   -1.822;   -6.425;  710.646
371.511;    1.134;   -6.294;  861.834
372.106;   -2.455;   -7.685;  776.964
372.701;   -5.535;   -7.335;  585.988
373.296;   -0.245;   -4.564;  863.135
373.890;   -5.000;  -10.235;  647.840
374.485;   -6.856;   -7.885;  691.199
375.079;   -3.128;   -7.324;  738.685
375.674;   -1.743;   -3.494;  812.970
376.268;   -6.395;   -8.525;  691.759
376.863;  -12.302;  -10.086;  580.327
377.457;   -5.680;   -7.025;  662.490
378.052;   -6.776;   -3.585;  764.884
378.646;   -8.468;   -7.595;  741.167
379.240;   -9.053;   -8.335;  721.176
379.835;   -7.482;   -5.785;  636.978
380.429;   -9.683;   -4.335;  562.557
381.023;  -10.063;   -6.805;  779.205
381.617;  -11.660;   -9.195;  680.106
382.212;   -8.836;   -6.905;  685.303
382.806;   -7.788;   -3.745;  760.690
383.400;  -12.014;   -7.745;  672.281
383.994;  -12.933;   -9.765;  664.870
384.588;   -8.988;   -6.564;  697.701
385.182;   -7.737;   -5.344;  726.624
385.776;   -9.974;   -8.514;  706.875
386.370;  -12.100;   -9.555;  681.968
386.964;  -10.963;   -8.715;  684.155
387.558;   -9.919;   -6.174;  598.360
388.152;  -12.565;   -8.725;  681.959
388.745;  -10.719;   -7.965;  814.707
389.339;   -9.120;   -5.924;  747.642
389.933;   -8.330;   -5.524;  695.370
390.527;   -9.677;   -7.114;  859.029
391.120;  -15.837;  -10.725;  595.318
391.714;  -13.191;   -8.035;  711.633
392.308;   -9.865;   -3.574;  780.253
392.901;  -13.859;   -7.245;  642.460
393.495;  -15.925;   -9.285;  595.414
394.089;  -13.264;   -5.895;  760.452
394.682;  -13.328;   -4.295;  697.188
395.275;  -14.141;   -9.875;  719.927
395.869;  -15.309;   -8.485;  667.314
396.462;  -14.266;   -7.455;  616.609
397.056;  -10.020;   -5.424;  776.621
397.649;  -14.737;   -6.605;  731.575
398.242;  -12.171;   -8.224;  712.645
398.836;  -11.243;   -7.474;  766.408
399.429;  -12.492;   -7.094;  631.041
400.022;  -16.051;   -9.475;  665.902
400.615;  -13.435;   -7.145;  805.609
401.208;  -11.659;   -7.174;  691.451
401.802;  -14.495;   -5.515;  699.329
402.395;  -14.687;   -9.875;  683.502
402.988;  -16.001;   -8.845;  696.627
403.581;  -12.373;   -8.874;  646.878
404.174;  -10.197;   -5.324;  686.568
404.767;  -13.131;   -9.575;  638.583
405.360;  -15.265;  -10.965;  621.445
405.953;  -10.401;   -8.764;  759.034
406.545;  -10.733;   -7.514;  725.342
407.138;  -14.452;  -10.025;  618.350
407.731;  -12.975;  -10.034;  613.303
408.324;   -9.313;   -9.374;  660.554
408.917;   -9.924;   -6.534;  681.864
409.509;  -12.625;   -8.004;  740.396
410.102;  -14.413;   -9.875;  643.948
410.695;   -7.003;   -8.604;  665.758
411.287;   -8.694;   -6.794;  599.821
411.880;  -10.890;   -9.334;  585.421
412.472;  -12.900;  -10.254;  613.092
413.065;  -10.148;   -6.714;  629.408
413.657;   -8.271;   -7.234;  576.678
414.250;   -8.448;  -10.544;  646.681
414.842;  -10.217;   -9.744;  676.353
415.434;   -7.184;   -6.994;  570.463
416.027;   -4.205;   -5.893;  652.196
416.619;   -5.797;   -7.264;  713.400
417.211;   -6.470;  -10.374;  599.352
417.804;   -2.472;   -7.993;  628.499
418.396;   -6.494;   -7.234;  607.643
418.988;   -5.127;   -9.443;  659.238
419.580;   -7.921;  -10.724;  568.276
420.172;   -5.520;  -10.323;  536.196
420.764;   -1.637;   -8.793;  672.482
421.356;   -2.532;  -11.143;  636.898
421.948;   -2.979;   -8.293;  677.661
422.540;    1.797;   -7.893;  680.027
423.132;    0.801;   -7.082;  600.641
423.724;   -2.236;   -8.653;  561.267
424.316;   -0.935;  -10.213;  621.345
424.908;    3.271;   -9.762;  591.517
425.500;    3.615;   -5.572;  647.978
426.092;    3.697;   -8.422;  648.268
426.683;    3.621;   -9.283;  684.836
427.275;    5.173;   -7.852;  641.471
427.867;    7.363;   -5.272;  668.948
428.458;    7.817;   -7.682;  732.344
429.050;    6.925;  -10.612;  680.749
429.642;    8.826;   -9.882;  743.124
430.233;    8.868;   -6.962;  569.356
430.825;    9.951;   -6.842;  724.809
431.416;    7.333;   -9.672;  698.241
432.008;   11.371;   -6.552;  651.723
432.599;   11.815;   -6.891;  656.073
433.190;    8.424;  -10.912;  637.670
433.782;    7.819;  -11.172;  590.395
434.373;   15.398;   -6.061;  884.765
434.964;   14.023;   -8.251;  602.920
435.556;   11.651;   -9.722;  634.537
436.147;   15.082;   -9.082;  758.490
436.738;   15.327;   -8.041;  701.099
437.329;   19.615;   -7.341;  721.723
437.920;   12.506;   -8.162;  666.688
438.511;   12.924;  -11.802;  564.526
439.103;   19.487;  -10.191;  623.998
439.694;   21.516;   -7.601;  681.583
440.285;   22.137;   -8.541;  764.432
440.876;   20.332;   -9.751;  845.738
441.466;   19.421;   -9.401;  575.162
442.057;   24.550;   -7.760;  665.814
442.648;   23.105;   -9.971;  746.255
443.239;   21.851;  -11.001;  620.477
443.830;   26.530;   -7.990;  704.958
444.421;   28.879;   -7.910;  655.474
445.011;   25.299;   -8.131;  693.619
445.602;   24.713;   -7.111;  743.126
446.193;   26.674;  -10.920;  488.117
446.783;   31.322;   -6.500;  640.397
447.374;   26.420;   -8.671;  692.759
447.964;   27.257;  -10.781;  713.770
448.555;   35.433;   -9.650;  822.742
449.145;   32.216;   -8.660;  662.853
449.736;   33.265;   -8.990;  803.179
450.326;   33.216;   -9.500;  713.626
450.917;   37.073;   -8.680;  675.324
451.507;   37.227;   -7.520;  600.661
452.097;   37.314;   -8.590;  746.267
452.688;   38.376;  -11.340;  742.160
453.278;   37.903;  -10.100;  566.840
453.868;   43.121;   -6.019;  793.550
454.458;   39.768;   -9.440;  651.141
455.048;   40.651;  -10.560;  711.783
455.639;   42.539;  -11.799;  567.096
456.229;   45.791;   -6.899;  710.694
456.819;   47.704;   -7.389;  751.158
457.409;   47.892;  -11.119;  773.993
457.999;   50.965;   -9.289;  737.505
458.589;   49.997;   -6.139;  686.606
459.179;   50.554;   -8.729;  717.658
459.769;   49.531;   -9.789;  627.099
460.358;   53.863;  -10.259;  797.262
460.948;   53.363;   -7.299;  689.503
461.538;   54.863;  -10.289;  660.677
462.128;   53.465;  -11.269;  664.934
462.717;   59.545;   -9.368;  710.326
463.307;   62.850;   -7.908;  705.846
463.897;   57.358;   -9.599;  656.942
464.486;   57.333;   -9.769;  837.128
465.076;   62.043;   -8.048;  733.776
465.666;   66.000;   -9.358;  652.900
466.255;   62.609;   -7.919;  785.651
466.845;   62.279;  -11.689;  666.749
467.434;   65.110;   -7.818;  725.873
468.023;   66.653;   -7.678;  658.357
468.613;   64.346;  -10.939;  713.946
469.202;   69.100;  -10.118;  646.507
469.791;   72.508;   -9.108;  737.811
470.381;   74.619;   -6.058;  742.813
470.970;   73.739;  -10.428;  711.099
471.559;   74.510;  -10.268;  733.291
472.148;   76.887;   -8.448;  675.737
472.738;   79.120;   -6.917;  765.466
473.327;   78.499;  -11.978;  637.529
473.916;   78.532;  -11.888;  737.446
474.505;   82.762;   -9.437;  751.703
475.094;   85.559;   -6.747;  806.570
475.683;   85.069;   -9.367;  797.699
476.272;   87.172;  -12.637;  730.632
476.861;   88.863;  -10.027;  706.754
477.449;   95.269;   -8.716;  728.487
478.038;   89.744;   -9.577;  692.513
478.627;   90.325;   -9.718;  714.852
479.216;   98.005;   -8.947;  769.441
479.805;  100.649;   -6.256;  783.375
480.393;  100.286;   -7.937; 1008.945
480.982;   99.756;   -7.717;  874.501
481.571;  105.521;   -9.266;  858.333
482.159;  106.627;   -7.636;  705.386
482.748;  105.740;   -9.667;  821.385
483.336;  111.004;  -10.376;  858.209
483.925;  111.985;   -7.147;  774.373
484.513;  118.645;   -7.996;  758.962
485.102;  115.188;  -10.027;  810.965
485.690;  123.205;  -10.446; 1011.050
486.278;  125.862;   -8.446;  979.329
486.867;  126.523;   -6.356;  809.662
487.455;  128.044;   -9.136;  898.229
488.043;  129.631;  -10.646;  748.361
488.631;  138.497;   -7.456; 1005.079
489.220;  142.828;   -6.636;  908.626
489.808;  142.491;  -11.036;  741.415
490.396;  151.335;  -10.246;  914.645
490.984;  157.294;   -8.556;  830.161
491.572;  168.431;   -5.886;  940.315
492.160;  174.996;   -9.486;  919.081
492.748;  189.089;  -10.976;  884.341
493.336;  213.764;   -8.776; 1019.693
493.924;  241.709;   -5.465;  958.077
494.512;  274.351;   -9.986; 1066.638
495.100;  316.656;  -10.636; 1103.280
495.687;  376.025;  -10.885; 1206.373
496.275;  442.008;   -8.126; 1150.796
496.863;  510.605;  -10.586; 1281.171
497.451;  613.675;  -11.926; 1386.805
498.038;  771.321;  -10.885; 1556.729
498.626;  905.341;   -6.315; 1741.407
499.214; 1060.081;   -7.326; 2016.609
499.801; 1273.419;  -11.906; 2220.633
500.389; 1541.054;  -10.466; 2312.494
500.976; 1914.166;   -5.236; 2744.849
501.564; 2343.655;   -8.936; 3148.565
502.151; 2736.420;  -13.176; 3515.999
502.738; 3256.046;  -10.646; 3971.274
503.326; 3673.627;   -9.525; 4403.796
503.913; 4142.194;  -10.856; 5161.749
504.500; 4491.563;  -11.586; 5986.420
505.088; 4914.286;  -10.336; 6381.201
505.675; 5498.181;   -6.355; 6925.547
506.262; 6110.264;   -9.046; 7619.060
506.849; 6848.750;  -10.416; 8733.969
507.436; 7320.479;  -10.305; 9790.121
508.023; 7630.928;   -5.496; 9985.472
508.610; 7947.029;   -7.856;10434.618
509.197; 8791.116;  -10.097;11198.435
509.784;10378.152;  -10.886;12391.194
510.371;11604.725;   -9.315;13603.713
510.958;12414.319;   -9.936;14426.586
511.545;12953.560;   -9.326;15243.775
512.132;13290.147;  -10.075;15945.876
512.719;13837.721;   -7.796;16340.369
513.305;15325.052;  -10.606;18011.766
513.892;16311.909;  -11.486;19754.971
514.479;17606.738;   -9.126;20967.805
515.066;18672.068;   -6.026;22299.793
515.652;19561.209;   -8.466;22908.660
516.239;20933.547;  -10.886;23798.875
516.825;21340.291;  -11.496;25567.275
517.412;21922.240;   -5.796;28154.959
517.998;22978.436;  -10.506;28344.111
518.585;23400.979;  -10.076;27134.219
519.171;23462.002;   -8.315;27268.576
519.758;25038.697;   -8.596;28964.129
520.344;26188.635;   -8.466;30664.494
520.930;26116.322;  -11.006;32550.605
521.516;27573.705;  -10.495;35422.895
522.103;30053.598;   -5.526;38280.004
522.689;30886.777;   -8.746;37835.117
523.275;29714.016;  -11.376;37288.613
523.861;29769.699;  -11.156;37281.395
524.447;31207.285;   -8.135;37846.949
525.033;30985.068;   -7.896;38321.949
525.619;30551.477;  -12.476;38579.285
526.205;29328.016;   -9.516;40622.875
526.791;29754.250;   -6.926;42258.836
527.377;31703.273;   -8.346;42966.902
527.963;36519.148;   -8.717;42018.949
528.549;37992.266;  -11.016;42476.828
529.135;36291.246;   -8.536;41854.852
529.721;35799.699;   -9.666;41237.711
530.306;35255.590;  -10.066;41259.445
530.892;35739.660;  -11.356;41506.047
531.478;36431.914;   -6.596;43559.613
532.063;37855.777;   -8.836;47695.563
532.649;38433.816;  -10.047;50808.324
533.235;40664.273;   -9.746;51787.500
533.820;42268.828;   -6.566;52145.035
534.406;41998.117;  -10.817;51133.488
534.991;41101.484;   -9.416;49996.805
535.576;39623.250;   -9.036;48882.852
536.162;40018.473;   -6.156;46942.285
536.747;40372.914;  -11.607;45711.746
537.333;42648.832;  -11.787;48510.180
537.918;44472.402;  -12.437;50439.891
538.503;42523.109;   -7.196;50863.711
539.088;38924.793;  -10.556;50906.922
539.673;38021.844;   -8.767;52621.965
540.259;36477.656;  -10.026;52368.094
540.844;33641.309;   -7.416;50879.109
541.429;35451.254;   -9.467;52077.777
542.014;41891.918;   -9.527;52716.695
542.599;45887.809;   -9.946;52363.281
543.184;43836.031;   -7.927;53187.137
543.769;44916.445;   -9.297;54697.605
544.354;45740.902;  -10.127;53913.914
544.938;45283.230;   -9.267;49680.164
545.523;47152.027;   -6.506;47386.277
546.108;48677.055;   -9.787;49151.949
546.693;49777.457;  -11.587;51384.637
547.278;49460.461;  -10.986;51853.254
547.862;45564.957;   -8.206;51173.750
548.447;41429.375;  -10.067;51691.395
549.031;41013.836;   -9.637;52456.703
549.616;45345.496;   -9.926;52714.516
550.201;45941.746;   -6.347;52414.598
550.785;45123.414;   -7.917;52355.059
551.370;44912.176;  -10.867;54589.453
551.954;45849.281;   -9.047;58267.348
552.538;47914.414;   -7.827;59062.176
553.123;47339.656;  -10.287;58115.285
553.707;45073.773;  -12.178;56556.285
554.291;45177.980;   -8.717;56201.668
554.876;44618.813;   -7.457;55335.762
555.460;44941.832;  -10.387;54155.703
556.044;47576.906;   -9.618;53721.484
556.628;45279.980;  -11.567;53731.016
557.212;45216.172;   -8.097;54312.531
557.796;44143.156;  -11.077;53797.773
558.380;44535.824;  -11.108;56145.984
558.964;44461.516;   -9.057;57277.930
559.548;44178.453;   -6.977;56459.641
560.132;42445.598;  -11.457;54434.543
560.716;41953.977;  -11.378;54800.617
561.300;41746.105;   -9.577;57606.945
561.884;42652.332;   -7.127;58972.445
562.467;42248.875;   -7.118;57327.570
563.051;41828.336;  -13.358;54962.434
563.635;41988.859;  -10.178;52594.473
564.219;43514.293;   -7.837;50610.410
564.802;44493.441;  -11.398;49551.180
565.386;44390.422;  -12.788;48370.953
565.969;43614.340;   -9.077;48178.871
566.553;42979.102;   -6.207;49957.305
567.136;43169.523;   -8.568;50369.594
567.720;39795.793;  -11.868;49492.004
568.303;38634.730;   -8.268;50616.352
568.887;38364.281;   -8.698;50727.148
569.470;38663.211;   -6.808;51698.379
570.053;37024.398;  -13.188;52122.078
570.637;36078.934;  -12.037;52536.438
571.220;36136.293;   -8.577;51186.098
571.803;36468.352;   -8.498;51032.762
572.386;38215.941;  -10.498;49609.887
572.969;41403.051;   -9.388;48285.926
573.552;40227.785;   -8.338;47624.285
574.135;39499.254;   -8.518;45498.641
574.718;36385.164;  -13.628;41970.434
575.301;35221.934;  -10.893;41447.137
575.884;34058.703;   -8.158;40923.836
576.467;34198.027;  -10.328;45267.723
577.050;37006.953;  -13.058;48175.543
577.633;38825.621;   -9.458;47729.328
578.216;37580.098;   -8.928;47579.793
578.799;36554.813;   -9.358;47820.996
579.381;35206.531;  -11.388;48115.551
579.964;33393.820;  -11.718;47333.766
580.547;34284.211;   -8.588;46668.969
581.129;34356.008;   -8.859;44466.141
581.712;34153.035;  -10.729;44164.922
582.294;34713.109;  -11.118;46477.855
582.877;36194.527;   -5.218;48244.254
583.459;35436.422;   -8.679;47437.895
584.042;33975.563;  -10.709;46943.219
584.624;33614.047;  -11.669;46792.227
585.206;32446.967;   -8.218;46557.250
585.789;33049.484;  -10.569;45793.773
586.371;36005.926;  -11.859;43836.391
586.953;36796.902;  -10.719;42972.492
587.536;37373.461;   -7.198;42487.211
588.118;37335.770;   -8.720;42086.414
588.700;34158.043;  -10.439;43389.930
589.282;33314.688;   -9.198;43646.039
589.864;33614.672;   -9.199;43438.109
590.446;35055.508;  -11.319;43151.926
591.028;34732.918;  -11.159;42781.867
591.610;33835.188;  -11.779;42839.098
592.192;30755.209;   -7.668;42820.402
592.774;29266.152;  -11.949;40724.277
593.356;28766.781;  -12.129;39874.789
593.937;29135.908;  -10.669;39980.648
594.519;31274.867;   -6.509;42069.633
595.101;32895.230;  -10.849;42976.031
595.683;33137.684;  -11.679;44084.441
596.264;34252.418;   -9.049;43478.797
596.846;32956.699;   -8.849;43803.672
597.427;31358.117;   -9.570;42986.934
598.009;33089.168;  -12.620;42832.219
598.591;33866.504;  -10.039;42580.086
599.172;33631.621;  -10.369;43061.805
599.753;33832.289;   -9.140;41691.469
600.335;34821.273;  -11.430;40692.520
600.916;33069.934;   -9.939;39982.422
601.498;31892.781;   -8.479;40318.617
602.079;31023.092;  -10.920;40670.609
602.660;30429.586;  -11.480;41450.898
603.241;30258.838;  -11.699;41137.738
603.823;28834.457;   -9.579;38868.797
604.404;29964.219;  -10.620;38182.785
604.985;31396.809;  -10.450;38078.047
605.566;30365.859;   -9.129;38056.633
606.147;30250.094;   -7.510;37020.418
606.728;32803.605;  -10.660;37883.359
607.309;31945.818;  -11.740;38748.273
607.890;31044.777;   -9.759;38850.230
608.471;30312.672;   -8.250;37457.918
609.051;30299.297;   -9.240;36066.457
609.632;29481.680;  -12.120;35991.074
610.213;30009.973;   -9.110;37402.641
610.794;30382.715;   -8.030;38383.363
611.374;28904.242;   -8.110;40562.387
611.955;28467.322;  -13.560;38533.727
612.536;30039.879;  -11.400;36951.789
613.116;30469.115;   -8.070;37197.891
613.697;31319.188;  -10.830;38411.125
614.277;29717.232;  -11.641;38673.938
614.858;30304.162;  -13.310;37075.863
615.438;30645.771;   -7.460;35092.906
616.019;28421.512;   -7.601;33666.301
616.599;28431.707;  -12.020;34189.023
617.179;30361.400;  -11.780;36952.047
617.760;30833.811;   -8.570;39582.574
618.340;32057.635;  -11.471;38943.977
618.920;33403.586;  -11.170;37594.156
619.500;32741.461;  -11.071;37866.938
620.080;32471.422;   -7.750;37869.043
620.660;33289.898;  -12.711;36868.617
621.241;33835.367;  -10.211;36352.309
621.821;32873.598;  -10.961;35459.520
622.401;32582.484;   -7.720;35207.414
622.980;31787.947;   -8.981;35980.422
623.560;30295.047;   -9.331;37351.328
624.140;29755.400;   -9.850;34388.582
624.720;26126.090;   -7.451;32368.764
625.300;22317.939;   -9.070;32638.629
625.880;24817.484;  -12.601;34599.035
626.459;28063.811;  -11.751;36831.738
627.039;30724.916;   -9.281;38299.098
627.619;30756.131;   -8.801;38289.574
628.198;29099.756;  -12.071;37220.695
628.778;29252.852;   -9.461;37632.563
629.357;30441.232;   -8.491;38003.012
629.937;30133.707;   -9.721;38402.039
630.516;29024.336;   -9.951;37868.801
631.096;29241.957;  -11.731;35760.410
631.675;32308.035;   -8.572;35225.219
632.254;37255.855;  -11.282;35130.289
632.834;36193.313;  -13.322;35794.570
633.413;35046.309;  -10.301;35788.922
633.992;32698.953;   -8.582;34532.863
634.571;33889.465;   -8.352;33590.113
635.151;35424.594;  -11.912;34943.863
635.730;33126.934;  -10.511;35352.523
636.309;30117.375;   -7.731;35366.605
636.888;27870.055;   -9.952;36165.637
637.467;28047.043;  -11.672;37515.902
638.046;30096.203;   -8.901;39288.695
638.625;32936.887;   -7.912;38279.699
639.204;32793.754;  -10.022;37741.598
639.782;31509.023;  -12.252;38364.551
640.361;28635.820;  -10.041;36740.621
640.940;25992.719;  -11.161;34950.082
641.519;25197.508;   -9.701;34137.398
642.097;27139.303;  -11.271;35654.258
642.676;30542.615;   -8.651;35637.957
643.255;32547.311;   -8.711;36567.074
643.833;31314.199;   -9.581;37809.434
644.412;31586.863;  -13.711;37337.293
644.990;31152.641;  -11.811;37018.531
645.569;31048.699;   -9.411;36518.469
646.147;29724.438;  -10.291;36186.430
646.726;28671.768;  -12.401;36267.688
647.304;29922.980;  -10.411;36647.625
647.882;31054.461;   -9.651;39286.742
648.461;32821.781;   -9.631;39157.703
649.039;32792.215;  -11.881;35412.883
649.617;32398.709;   -9.661;34744.918
650.195;32283.648;   -9.301;35403.098
650.773;31403.930;  -10.511;35053.797
651.352;29554.684;  -11.521;33756.816
651.930;26459.764;  -12.211;31868.773
652.508;23324.221;   -9.171;33121.551
653.086;26559.537;   -9.371;33564.793
653.663;30812.797;  -13.161;34054.668
654.241;29757.279;  -13.031;35693.309
654.819;30170.475;   -9.371;36422.906
655.397;29092.924;  -10.511;38213.484
655.975;29026.771;  -10.371;39507.625
656.553;29894.695;  -10.051;39498.223
657.130;29207.037;  -10.061;40395.480
657.708;28735.408;   -9.561;39242.020
658.286;28661.549;  -11.511;38920.020
658.863;29071.029;  -10.261;40202.898
659.441;30575.232;   -7.531;39677.938
660.018;29961.291;   -9.501;40413.355
660.596;29499.525;  -13.301;39931.414
661.173;31435.178;  -11.211;39604.531
661.750;31767.227;   -9.951;39700.070
662.328;30767.047;   -9.390;39292.809
662.905;29885.896;  -11.330;38235.648
663.482;25685.457;   -9.050;36212.305
664.060;23712.266;   -8.240;35944.945
664.637;26339.727;  -10.050;35170.785
665.214;28073.602;  -11.760;34197.523
665.791;30051.127;  -10.530;34549.520
666.368;29688.191;   -9.690;35118.578
666.945;30381.348;   -9.320;36019.418
667.522;31054.238;  -11.860;36048.438
668.099;30946.945;  -10.770;36243.914
668.676;30685.568;   -6.260;35958.875
669.253;29576.135;   -7.000;37384.730
669.830;29296.047;  -10.190;36779.629
670.407;28823.908;   -9.550;35231.289
670.984;29916.949;   -9.260;35544.270
671.560;29217.945;   -9.280;35466.867
672.137;27412.252;  -11.810;34280.863
672.714;28557.107;  -11.490;34632.863
673.290;29087.801;   -7.740;35135.422
673.867;29001.521;  -10.660;36114.480
674.443;29697.842;  -12.230;36152.859
675.020;28025.219;  -10.450;35327.238
675.596;29089.590;   -9.260;35795.176
676.173;29822.537;  -10.780;35430.355
676.749;28864.850;  -13.690;33549.516
677.326;28557.947;  -11.980;32210.012
677.902;28814.309;   -8.630;32068.871
678.478;28208.836;  -10.730;32583.891
679.054;28636.928;  -10.520;32088.928
679.631;30521.697;  -11.920;30978.848
680.207;30743.721;   -7.490;33160.887
680.783;31648.873;   -9.860;35570.363
681.359;30735.822;  -13.380;36125.184
681.935;29047.393;  -12.480;35240.922
682.511;27568.643;   -7.900;34429.961
683.087;27496.840;   -7.710;34463.680
683.663;28229.162;  -11.480;34648.898
684.239;28689.385;  -14.090;34546.457
684.815;28629.416;   -7.560;35586.375
685.390;28742.256;   -9.910;35821.895
685.966;28901.092;  -11.159;35085.871
686.542;30959.834;  -11.169;34198.230
687.118;33025.504;   -5.959;32847.707
687.693;33159.840;  -10.329;32794.027
688.269;32276.947;  -12.059;33072.367
688.844;29353.051;  -10.909;33141.664
689.420;27800.527;   -8.019;33965.742
689.995;26974.770;   -8.399;34655.523
690.571;26502.852;  -10.949;33576.742
691.146;27043.811;   -9.619;32657.219
691.722;26049.404;   -8.999;32526.979
692.297;25146.244;  -11.589;33014.617
692.872;26617.877;  -11.739;34012.254
693.448;26963.355;  -11.059;34237.434
694.023;25715.516;  -10.139;34142.672
694.598;27541.887;   -9.029;34132.031
695.173;27578.980;  -13.319;34205.250
695.748;26925.146;  -10.169;32882.488
696.323;26717.039;   -8.339;32864.906
696.898;26151.205;   -8.169;33170.004
697.473;26059.799;  -12.309;32432.984
698.048;26293.791;  -10.989;31649.303
698.623;26937.303;   -9.329;30778.141
699.198;28167.619;   -9.849;31140.119
699.773;29224.475;  -12.329;31764.299
700.348;28675.646;  -10.389;31780.816
700.922;29421.596;   -9.269;32046.375
701.497;29781.027;   -9.329;32603.574
702.072;29526.322;  -10.789;34799.871
702.646;29427.561;  -10.839;35793.172
703.221;28636.318;   -9.099;35201.590
703.795;30323.059;  -10.939;34764.527
704.370;29645.592;  -12.859;34307.367
704.944;29016.109;  -11.559;33509.887
705.519;30319.217;   -7.939;31388.584
706.093;31505.672;  -10.499;31340.104
706.668;31537.379;  -11.289;32630.281
707.242;29991.516;  -11.509;32728.779
707.816;28970.813;   -9.639;32947.238
708.390;27198.979;  -11.429;33277.855
708.965;27353.662;  -11.869;33834.336
709.539;28064.988;  -11.689;33709.273
710.113;28362.482;  -10.478;33044.313
710.687;27605.980;  -10.228;31953.992
711.261;25098.133;  -13.698;30505.949
711.835;24991.617;  -13.378;30262.369
712.409;26222.535;   -9.698;31254.447
712.983;27765.467;  -11.898;32754.986
713.557;29096.119;  -15.138;34018.824
714.131;28864.680;  -14.098;34579.625
714.704;27629.541;   -9.958;33890.262
715.278;25145.883;  -10.028;33531.102
715.852;25320.596;  -11.148;33601.660
716.425;26861.418;   -9.068;33515.117
716.999;27100.811;  -10.038;33185.555
717.573;27392.994;   -9.798;33905.996
718.146;28363.113;  -12.378;35199.293
718.720;28670.561;  -11.918;35060.551
719.293;28875.477;   -8.088;34973.230
719.867;31245.357;  -10.888;36394.449
720.440;31273.492;  -11.938;36663.008
721.013;30052.572;  -12.818;35102.426
721.587;28687.465;  -10.298;33985.266
722.160;26346.611;  -10.048;33524.965
722.733;25209.334;  -12.108;32987.043
723.306;26280.936;  -10.818;33066.301
723.880;27823.984;   -8.908;33399.500
724.453;29762.049;   -9.878;33468.297
725.026;29067.984;  -11.188;33816.637
725.599;26000.063;  -11.678;32797.996
726.172;26156.703;   -9.618;33187.434
726.745;27884.803;   -8.258;35136.613
727.318;29507.727;  -12.978;35751.730
727.891;30112.258;  -12.148;35890.430
728.463;29925.090;   -8.968;34822.090
729.036;28612.609;  -10.188;32895.086
729.609;28706.672;  -11.788;31823.225
730.182;25166.301;  -11.788;31445.283
730.754;23070.172;  -10.268;32373.223
731.327;23651.736;   -9.998;33676.820
731.900;23378.668;  -12.228;33417.000
732.472;24475.424;  -13.848;31978.498
733.045;27351.500;   -8.698;30368.777
733.617;27613.396;  -10.607;30574.215
734.190;26876.166;  -11.507;31280.975
734.762;24004.123;  -13.647;31674.412
735.334;22542.090;   -9.767;31247.291
735.907;22992.035;   -9.897;29876.211
736.479;22942.662;  -11.637;29808.488
737.051;22472.604;   -9.567;30233.547
737.623;23532.625;   -8.187;31469.086
738.195;24524.656;  -11.187;31784.225
738.768;26107.439;  -12.337;32120.523
739.340;26037.570;  -12.227;32094.342
739.912;24497.707;  -11.057;31312.680
740.484;24018.043;  -10.207;31946.238
741.056;23121.045;  -10.047;32984.059
741.628;24033.010;  -13.627;33897.715
742.199;26352.168;   -7.177;33213.016
742.771;25587.068;  -10.797;31369.113
743.343;23346.826;  -11.997;31865.473
743.915;21766.713;  -12.867;32388.631
744.487;21617.615;   -7.617;31079.568
745.058;22374.730;   -9.557;30570.107
745.630;23640.029;   -9.877;29970.127
746.201;25065.650;  -14.177;29186.766
746.773;25345.637;   -9.237;28805.723
747.344;24825.566;   -9.847;29591.223
747.916;23095.252;  -11.657;31412.201
748.487;22140.877;  -10.587;32194.898
749.059;23486.520;   -8.707;32533.719
749.630;24796.398;  -10.537;32158.518
750.201;24285.162;  -11.687;30855.395
750.773;23103.424;  -11.647;28622.555
751.344;23044.482;   -7.147;28405.732
751.915;23828.969;   -9.757;28461.551
752.486;22857.619;  -12.427;27842.850
753.057;20458.631;  -12.227;27845.008
753.628;19354.984;  -10.417;27728.107
754.199;19812.904;  -11.767;27381.086
754.770;20725.900;  -11.187;25882.203
755.341;20915.281;  -10.507;25886.184
755.912;20935.576;   -9.387;26050.861
756.483;20575.938;  -10.647;26798.779
757.054;19083.553;  -11.837;27048.238
757.625;18023.479;  -12.716;26294.838
758.195;17897.510;   -9.666;26142.076
758.766;17572.279;   -8.656;26392.234
759.337;18497.469;  -12.856;26334.594
759.907;19997.322;  -13.366;27579.652
760.478;20956.520;   -8.576;28352.770
761.048;21140.504;  -10.526;27325.088
761.619;20641.252;  -11.116;26460.428
762.189;20092.854;  -12.136;26029.826
762.760;20243.066;   -9.456;26430.145
763.330;21018.387;   -7.136;26670.902
763.900;20393.609;  -11.786;26603.021
764.471;17668.793;  -11.546;25542.740
765.041;16578.104;   -8.096;24358.459
765.611;17378.670;   -8.876;23991.297
766.181;17909.965;  -12.196;24470.236
766.751;18501.680;  -11.636;24845.975
767.321;18447.070;  -10.156;24533.633
767.891;16298.208;  -11.766;24916.492
768.461;15404.887;  -14.936;24776.771
769.031;15662.691;  -12.356;24757.988
769.601;17397.793;   -7.526;24181.088
770.171;17774.555;  -10.766;23670.387
770.741;17234.736;  -13.176;22960.045
771.311;17243.070;  -10.616;22917.523
771.880;17422.248;   -9.576;23562.941
772.450;17122.965;  -10.336;24216.500
773.020;17207.904;  -13.516;24140.398
773.589;16777.535;  -13.466;24414.857
774.159;16377.706;   -8.686;23858.717
774.729;16009.143;   -9.476;22942.135
775.298;15314.482;  -13.666;22324.033
775.867;14721.006;  -11.716;21140.313
776.437;14811.937;   -9.906;20838.092
777.006;14701.638;  -12.166;20599.510
777.576;14762.727;  -12.356;20508.809
778.145;14998.516;  -11.646;20732.947
778.714;14763.428;   -8.226;21062.465
779.283;13642.384;   -9.556;20949.664
779.853;13292.791;  -14.116;20508.623
780.422;13810.570;  -11.506;20649.082
780.991;13290.177;   -9.556;21527.520
781.560;12421.269;   -9.095;22632.658
782.129;12356.761;  -12.135;23048.277
782.698;12066.496;  -10.865;23438.555
783.267;11609.091;   -9.335;23267.734
783.836;11563.714;  -11.045;22415.133
784.404;12229.174;  -13.865;20443.152
784.973;12206.397;  -13.095;19699.150
785.542;11938.855;  -11.575;19763.828
786.111;11918.364;   -9.705;20341.408
786.679;11801.802;  -12.105;20207.967
787.248;11848.999;  -12.455;19516.465
787.817;11439.073;  -11.535;18900.363
788.385;10794.215;   -9.765;17879.121
788.954; 9975.364;  -14.005;17658.301
789.522; 9658.163;  -11.955;17788.879
790.090;10354.577;  -10.135;18118.277
790.659;10840.886;  -10.975;18338.736
791.227;10318.500;  -13.375;18508.615
791.795;10677.153;  -12.375;17898.254
792.364;11029.940;  -10.725;17295.133
792.932;11216.694;   -9.715;16822.051
793.500;11251.569;  -12.675;17040.148
794.068;11424.118;  -13.495;17179.787
794.636;11641.846;  -10.885;16664.246
795.204;11137.201;  -11.045;16524.545
795.772;10882.137;  -13.175;17274.564
796.340;10384.059;  -12.445;17891.002
796.908;10202.161;   -9.735;17648.561
797.476;10146.910;   -9.815;17064.080
798.044; 9628.964;  -13.985;16672.777
798.612; 8905.097;  -13.115;17023.996
799.180; 8694.718;  -10.185;16561.615
799.747; 8714.313;   -9.055;15962.773
800.315; 8492.443;  -12.385;15296.992
800.883; 8182.669;  -15.035;14801.771
801.450; 8124.525;  -10.365;14534.430
802.018; 8133.479;   -9.855;14173.248
802.585; 8113.121;  -11.905;14029.547
803.153; 8204.688;  -11.585;13836.846
803.720; 8154.640;   -9.095;13567.324
804.287; 7693.308;   -9.135;13360.622
804.855; 7254.861;  -11.604;13681.981
805.422; 7153.676;  -11.794;13536.560
805.989; 7025.123;  -10.734;13355.958
806.556; 7144.832;  -10.444;13747.896
807.124; 7575.079;  -12.764;13987.376
807.691; 7693.033;  -12.964;14038.674
808.258; 7608.218;  -11.134;14120.152
808.825; 7333.755;   -9.854;13860.111
809.392; 7374.224;  -10.504;13268.790
809.959; 6990.920;  -13.054;12680.389
810.526; 6588.222;   -8.294;12427.308
811.093; 6500.625;   -8.394;12030.105
811.659; 7026.640;  -12.304;11653.664
812.226; 7458.641;  -13.944;11637.183
812.793; 7212.083;  -10.484;11611.521
813.360; 6630.410;  -10.144;11885.181
813.926; 6143.069;  -11.684;12770.539
814.493; 5897.735;  -13.644;12677.638
815.060; 5547.303;   -9.724;11974.336
815.626; 5496.914;   -9.854;11594.715
816.193; 5911.363;  -13.254;11579.474
816.759; 6103.646;  -13.204;11666.972
817.325; 6333.895;   -9.434;11325.530
817.892; 6651.764;  -10.134;11105.369
818.458; 7040.095;  -13.474;10843.928
819.024; 6782.642;  -11.854;10714.406
819.591; 6507.817;  -10.244;10469.165
820.157; 6306.563;  -10.704;10235.523
820.723; 5961.676;  -12.324;10847.563
821.289; 5805.349;   -9.444;11040.980
821.855; 5809.528;   -8.374;10357.100
822.421; 5925.165;  -10.234; 9978.918
822.987; 5841.404;  -13.294; 9754.177
823.553; 5464.871;  -10.884;10065.755
824.119; 5335.222;   -8.884;10036.294
824.685; 5499.771;   -6.784;10029.192
825.251; 5549.592;  -12.004;10199.230
825.816; 5464.627;  -11.474; 9820.189
826.382; 5352.086;   -9.174; 9297.248
826.948; 5606.103;   -9.214; 9381.347
827.513; 6039.923;  -10.774; 9450.726
828.079; 5901.436;  -11.924; 9472.444
828.645; 5349.806;  -10.543; 9292.643
829.210; 5273.012;  -10.533; 9065.341
829.776; 5266.450;  -10.753; 9132.620
830.341; 5180.275;  -10.173; 9092.878
830.906; 5324.207;  -10.743; 9078.557
831.472; 5705.367;  -11.113; 8534.535
832.037; 5636.766;  -10.603; 8677.874
832.602; 5161.407;  -13.323; 8628.692
833.167; 4734.276;  -10.823; 8879.031
833.733; 4582.100;  -10.113; 9189.790
834.298; 4648.917;  -13.583; 9052.608
834.863; 4613.220;  -12.703; 8895.087
835.428; 4637.889;  -10.523; 8824.266
835.993; 4767.861;   -6.963; 8845.385
836.558; 4740.274;  -10.763; 8888.563
837.123; 4768.248;   -9.903; 8966.582
837.688; 4862.608;   -9.913; 8617.860
838.253; 4984.873;  -10.283; 8590.699
838.817; 5141.730;  -12.963; 8443.797
839.382; 5149.472;  -14.243; 8799.356
839.947; 4905.146;  -10.733; 8810.595
840.511; 4624.292;   -9.383; 8796.394
841.076; 4237.604;  -12.563; 8347.231
841.641; 4192.612;  -12.953; 8224.330
842.205; 4219.138;   -7.043; 8223.349
842.770; 4338.748;   -8.163; 8622.107
843.334; 4702.862;  -12.503; 8410.386
843.898; 4728.897;  -11.693; 8337.465
844.463; 4666.237;  -10.203; 8506.283
845.027; 4374.828;   -9.533; 8280.962
845.591; 4164.948;  -13.443; 8231.141
846.156; 4214.379;  -13.143; 7969.179
846.720; 4104.828;   -9.433; 7768.278
847.284; 4006.429;  -11.033; 7630.957
847.848; 3780.551;  -10.403; 7472.395
848.412; 3604.551;  -11.553; 7437.394
848.976; 3640.566;   -8.393; 7674.592
849.540; 3574.319;   -8.713; 7836.011
850.104; 3593.388;  -12.463; 7913.669
850.668; 3876.612;  -12.973; 7694.508
851.232; 3973.523;  -10.793; 7756.887
851.796; 3796.748;  -10.662; 7926.545
852.359; 3480.516;  -13.082; 7827.844
852.923; 3348.971;  -12.192; 7641.163
853.487; 3241.623;  -11.912; 7342.501
854.050; 3190.100;  -10.892; 7042.820
854.614; 3312.408;  -13.992; 7151.338
855.177; 3421.086;  -11.732; 7105.077
855.741; 3446.666;   -8.962; 6989.675
856.304; 3297.372;   -9.442; 6596.634
856.868; 3259.866;  -14.192; 6356.272
857.431; 3399.294;  -12.702; 6468.571
857.995; 3491.985;   -9.942; 6373.210
858.558; 3534.988;   -9.112; 6324.448
859.121; 3298.807;  -12.932; 6408.327
859.684; 3154.507;  -13.442; 6347.886
860.247; 3235.042;  -10.632; 6321.264
860.810; 3176.851;  -11.272; 6301.903
861.374; 2869.964;   -9.832; 6607.881
861.937; 2569.995;  -11.762; 6408.200
862.500; 2499.889;   -9.722; 6572.639
863.062; 2598.516;  -10.512; 6387.297
863.625; 2702.377;  -11.232; 6190.836
864.188; 2833.707;  -14.112; 5807.254
864.751; 2943.433;  -11.302; 5682.413
865.314; 2890.590;  -10.112; 5547.492
865.876; 2747.226;  -12.182; 5500.150
866.439; 2769.411;  -10.722; 5415.909
867.002; 2693.059;   -9.252; 5501.567
867.564; 2465.130;   -9.572; 5413.946
868.127; 2261.056;  -13.142; 5160.325
868.689; 2213.175;  -12.902; 5133.183
869.252; 2181.936;   -9.732; 5252.382
869.814; 2082.975;   -9.432; 5297.141
870.377; 2063.730;  -11.552; 5390.919
870.939; 2145.610;   -9.052; 5599.898
871.501; 2218.561;  -10.982; 5248.336
872.063; 2244.844;  -12.292; 4854.235
872.626; 2230.619;  -14.912; 4817.074
873.188; 2201.859;  -13.112; 4987.732
873.750; 2140.413;  -13.442; 4868.651
874.312; 2058.188;   -9.402; 4779.330
874.874; 1999.382;  -11.062; 4866.348
875.436; 1945.045;  -13.931; 4718.887
875.998; 1926.714;   -9.561; 4660.005
876.560; 1924.678;  -11.321; 4462.964
877.122; 1913.608;  -12.221; 4145.042
877.683; 1911.657;  -12.191; 4056.481
878.245; 1953.286;  -12.101; 3950.740
878.807; 2027.192;   -8.971; 4058.958
879.369; 1932.208;  -12.071; 3954.677
879.930; 1575.406;  -14.621; 3941.495
880.492; 1223.715;  -10.311; 4067.014
881.053;  967.641;  -10.901; 3859.633
881.615;  835.505;  -14.411; 3776.071
882.176;  841.856;  -13.761; 3734.750
882.738;  917.683;   -9.181; 3678.489
883.299;  986.735;  -11.791; 3405.407
883.860; 1045.835;  -13.121; 3351.106
884.422; 1087.892;  -11.211; 3394.044
884.983; 1089.849;  -10.091; 3166.443
885.544; 1038.776;   -8.461; 3189.802
886.105;  992.798;  -12.361; 3160.360
886.666;  969.873;  -14.141; 3093.059
887.227;  938.847;  -11.361; 2941.957
887.788;  875.041;  -11.401; 2974.836
888.349;  811.545;  -13.791; 2721.214
888.910;  823.897;  -13.191; 2696.493
889.471;  841.493;   -9.881; 2560.172
890.032;  821.188;   -9.881; 2558.190
890.593;  789.089;  -10.371; 2567.669
891.153;  769.372;  -13.301; 2460.307
891.714;  732.875;  -11.431; 2372.046
892.275;  703.476;  -11.291; 2309.505
892.835;  670.730;  -11.471; 2382.543
893.396;  621.345;  -11.541; 2295.502
893.956;  571.847;  -11.181; 2162.420
894.517;  532.338;  -11.741; 2125.439
895.077;  524.705;  -11.671; 2086.978
895.638;  531.473;  -11.311; 2126.316
896.198;  505.387;   -9.831; 1838.275
896.758;  458.154;   -8.421; 1892.813
897.319;  425.425;  -12.351; 1792.232
897.879;  417.137;  -13.511; 1762.751
898.439;  393.658;  -12.001; 1661.149
898.999;  361.992;  -10.180; 1781.468
899.559;  349.364;  -12.030; 1703.347
900.119;  344.791;  -15.710; 1537.525
900.679;  342.892;   -8.900; 1638.384
901.239;  330.425;   -8.340; 1527.902
901.799;  321.333;  -13.910; 1456.441
902.359;  312.214;  -13.460; 1357.140
902.919;  302.228;  -11.490; 1331.118
903.479;  286.498;  -12.110; 1317.257
904.038;  264.510;  -11.720; 1262.595
904.598;  248.421;  -13.610; 1152.034
905.158;  243.756;  -11.040; 1240.893
905.717;  234.112;  -10.900; 1233.691
906.277;  223.528;  -15.080; 1217.330
906.836;  214.844;  -13.380; 1222.408
907.396;  206.296;  -10.780; 1193.047
907.955;  199.983;   -8.500; 1182.526
908.515;  194.202;  -12.760; 1099.364
909.074;  188.302;  -11.900; 1092.863
909.633;  181.504;   -8.950; 1069.121
910.192;  177.329;   -8.770; 1196.460
910.752;  173.594;  -12.390; 1029.960
911.311;  169.567;  -13.680; 1009.780
911.870;  166.121;  -12.370;  971.460
912.429;  164.564;  -10.900; 1094.080
912.988;  161.397;  -11.690; 1081.060
913.547;  155.544;  -13.240;  940.380
914.106;  149.206;  -11.990;  999.420
914.665;  145.802;   -9.990;  984.020
915.224;  144.905;  -12.880; 1035.760
915.782;  145.598;  -12.350;  922.560
916.341;  147.137;   -9.110; 1049.840
916.900;  142.660;   -9.270;  925.260
917.458;  141.628;  -13.240;  884.220
918.017;  141.144;  -13.550;  942.600
918.576;  141.231;  -12.320;  904.440
919.134;  139.053;  -11.490;  837.980
919.693;  136.731;  -13.670;  893.060
920.251;  134.698;  -15.470;  876.500
920.809;  134.050;  -11.290;  839.580
921.368;  134.270;  -10.210;  885.360
921.926;  132.989;  -12.140;  842.940
922.484;  131.970;  -13.080;  903.360
923.042;  131.354;  -11.720;  880.340
923.601;  133.744;   -7.480;  998.680
924.159;  132.690;  -11.570;  935.560
924.717;  129.570;  -13.840;  841.080
925.275;  129.304;  -10.640;  903.240
925.833;  129.281;  -11.540;  779.320
926.391;  130.140;  -12.960;  938.380
926.949;  128.093;  -14.130;  857.680
927.506;  128.419;  -11.750;  903.500
928.064;  128.346;  -10.250;  877.580
928.622;  127.819;  -13.030;  880.100
929.180;  127.271;  -13.400;  814.180
929.737;  128.538;  -10.700;  808.540
930.295;  131.881;  -10.070;  928.480
930.853;  134.111;  -11.960;  849.100
931.410;  135.445;  -13.120;  821.120
931.968;  133.825;  -10.770;  940.660
932.525;  132.443;  -10.680;  909.380
933.082;  133.229;  -13.130;  811.440
933.640;  134.489;  -13.210;  925.900
934.197;  133.301;  -11.060;  886.360
934.754;  133.058;   -9.580;  897.780
935.312;  136.764;  -14.000;  863.340
935.869;  141.055;  -10.710; 1012.980
936.426;  140.180;   -9.860;  872.800
936.983;  140.920;   -9.710;  889.020
937.540;  139.984;  -13.990;  838.280
938.097;  140.057;  -14.040;  940.120
938.654;  140.658;  -10.310;  898.860
939.211;  142.541;  -10.560;  952.480
939.768;  146.518;  -13.900;  915.420
940.324;  149.802;  -14.760;  904.200
940.881;  151.536;  -10.370;  878.500
941.438;  152.226;   -8.260; 1021.200
941.995;  148.712;  -12.540;  992.560
942.551;  145.038;  -14.670;  875.620
943.108;  145.144;  -10.450;  937.920
943.664;  145.473;  -10.750;  869.340
944.221;  149.168;  -11.550; 1088.140
944.777;  149.120;  -14.770;  869.680
945.334;  150.586;  -12.820;  884.840
945.890;  153.584;  -10.130;  946.480
946.446;  153.912;  -13.470;  947.020
947.003;  154.893;  -12.120;  964.940
947.559;  154.943;   -9.980; 1063.040
948.115;  153.426;   -9.080; 1026.540
948.671;  150.354;  -10.830;  967.300
949.227;  146.312;  -12.440;  859.560
949.783;  144.957;  -12.910;  858.900
950.339;  146.941;  -10.270;  991.000
950.895;  147.706;  -13.630; 1023.840
951.451;  147.435;  -15.100;  925.280
952.007;  149.473;  -11.330;  998.540
952.563;  151.316;  -10.580;  937.780
953.118;  150.319;  -13.440;  904.940
953.674;  149.894;  -12.710;  935.780
954.230;  149.394;  -10.350;  949.640
954.785;  147.170;   -9.190;  936.640
955.341;  146.488;  -11.200;  998.160
955.897;  143.895;  -16.560;  834.660
956.452;  144.474;  -12.570;  953.840
957.008;  142.956;   -7.970; 1083.640
957.563;  139.677;  -11.940; 1009.540
958.118;  136.190;  -13.450;  877.700
958.674;  136.542;  -12.030;  946.780
959.229;  138.337;   -9.410; 1013.980
959.784;  135.241;  -12.000;  832.400
960.339;  133.196;  -14.780; 1001.280
960.894;  128.753;   -9.860;  963.760
961.449;  125.181;   -9.970;  859.960
962.004;  124.901;  -10.900; 1212.840
962.559;  122.325;  -13.150;  860.140
963.114;  119.974;  -13.740;  742.480
963.669;  118.214;   -9.820;  915.500
964.224;  117.352;  -13.890;  874.340
964.779;  115.902;  -12.600;  828.420
965.334;  116.686;  -10.950; 1017.860
965.888;  115.857;  -11.170;  875.360
966.443;  117.304;  -12.540;  972.380
966.998;  116.763;  -15.780;  819.460
967.552;  116.452;   -9.760;  908.380
968.107;  111.405;   -9.060;  868.300
968.661;  113.688;  -11.950;  922.440
969.216;  113.466;  -12.800;  856.280
969.770;  112.856;  -11.210;  917.200
970.324;  111.284;  -11.610;  923.140
970.879;  109.068;  -11.370;  947.180
971.433;  106.300;  -12.540;  952.720
971.987;  100.985;  -11.320;  895.340
972.541;   98.468;  -10.720;  917.100
973.095;   98.304;   -9.680; 1009.460
973.649;   97.234;  -11.440;  809.480
974.203;   98.159;  -11.210;  829.040
974.757;   98.172;  -10.240;  855.220
975.311;   98.473;  -13.720;  872.600
975.865;   97.489;  -13.770;  881.820
976.419;   95.767;  -11.690;  857.400
976.973;   95.870;   -9.510;  849.620
977.526;   98.278;  -12.620;  949.920
978.080;   97.129;  -12.010;  796.780
978.634;   98.450;  -10.170;  921.320
979.187;   96.369;   -9.020;  905.400
979.741;   93.705;   -9.820; 1018.380
980.294;   89.667;  -14.870;  789.160
980.848;   86.923;  -12.380;  717.220
981.401;   87.990;  -10.350;  816.540
981.955;   90.705;  -13.720;  844.300
982.508;   89.792;  -11.490;  746.340
983.061;   90.912;  -10.000;  915.260
983.615;   87.866;  -11.480;  798.800
984.168;   84.683;  -13.220;  770.080
984.721;   83.820;  -13.960;  880.760
985.274;   82.398;  -10.870;  867.500
985.827;   81.911;   -9.790;  834.220
986.380;   79.239;  -13.120;  721.340
986.933;   78.754;  -12.450;  864.800
987.486;   76.951;  -10.210;  861.920
988.039;   75.532;   -8.430;  863.100
988.591;   73.635;  -10.520;  893.260
989.144;   71.117;  -14.860;  737.260
989.697;   70.653;  -13.080;  758.740
990.250;   71.404;  -10.150;  858.100
990.802;   70.164;  -13.430;  755.860
991.355;   70.591;  -12.750;  974.880
991.907;   68.600;  -12.040;  864.320
992.460;   66.609;  -11.330;  753.760
993.012;   65.782;  -13.610;  749.540
993.565;   64.735;  -13.460;  711.360
994.117;   66.470;   -9.360;  950.780
994.669;   62.165;  -11.300;  701.320
995.221;   61.226;  -13.540;  791.920
995.774;   59.521;  -13.430;  787.580
996.326;   58.121;  -12.520;  740.220
996.878;   57.574;  -10.950;  838.420
997.430;   55.994;  -14.300;  699.860
997.982;   55.218;  -13.760;  750.140
998.534;   54.021;  -11.530;  739.060
999.086;   52.528;  -10.310;  738.220
999.638;   51.894;  -12.530;  661.380
1000.190;   50.875;  -11.840;  699.320
1000.741;   50.455;  -10.260;  742.700
1001.293;   49.542;   -8.860;  686.020
1001.845;   48.289;  -13.700;  676.640
1002.396;   48.943;  -12.100;  743.400
1002.948;   48.453;  -12.760;  737.400
1003.500;   47.076;  -10.380;  723.780
1004.051;   46.964;  -11.900;  907.580
1004.603;   45.753;  -12.250;  791.820
1005.154;   42.175;  -13.210;  608.980
1005.705;   41.203;  -10.950;  723.960
1006.257;   40.109;  -13.880;  707.220
1006.808;   39.465;  -12.840;  685.460
1007.359;   39.467;  -10.570;  763.240
1007.910;   38.783;   -9.620;  646.640
1008.461;   37.716;  -13.630;  732.940
1009.013;   37.566;  -17.200;  588.340
1009.564;   38.577;  -10.200;  793.520
1010.115;   35.983;  -12.570;  597.040
1010.665;   36.177;  -15.150;  602.160
1011.216;   36.120;  -14.480;  667.920
1011.767;   35.670;  -11.340;  697.920
1012.318;   35.720;   -9.780;  736.980
1012.869;   35.323;  -12.380;  679.000
1013.419;   33.948;  -15.560;  603.120
1013.970;   34.530;  -11.010;  666.640
1014.521;   33.266;  -11.610;  620.620
1015.071;   33.875;  -13.450;  670.380
1015.622;   33.957;  -13.870;  635.460
1016.172;   33.047;  -11.610;  596.820
1016.723;   32.634;  -12.120;  614.380
1017.273;   32.299;  -13.620;  604.160
1017.823;   33.003;  -14.140;  650.340
1018.374;   32.066;  -12.800;  611.760
1018.924;   31.518;  -12.340;  716.880
1019.474;   32.334;  -11.410;  718.880
1020.024;   30.804;  -14.770;  657.580
1020.574;   31.783;   -9.780;  726.160
1021.124;   31.697;   -8.560;  673.580
1021.674;   30.152;  -15.190;  559.120
1022.224;   32.089;  -13.530;  708.940
1022.774;   31.501;  -13.280;  668.820
1023.324;   31.345;  -10.690;  753.520
1023.874;   32.643;  -10.240;  875.760
1024.423;   29.779;  -12.540;  613.700
1024.973;   29.565;  -10.010;  610.760
1025.523;   28.812;  -10.550;  620.960
1026.072;   28.070;  -13.560;  606.420
1026.622;   29.021;  -15.120;  675.740
1027.172;   29.773;  -11.260;  715.660
1027.721;   28.235;  -11.410;  601.220
1028.270;   28.713;  -13.530;  663.400
1028.820;   28.889;  -13.680;  638.080
1029.369;   27.356;  -13.520;  612.700
1029.918;   27.196;  -10.980;  649.840
1030.468;   27.426;  -13.530;  564.780
1031.017;   27.647;  -13.170;  634.800
1031.566;   27.023;  -12.200;  608.900
1032.115;   27.372;   -9.960;  694.500
1032.664;   26.623;  -13.210;  596.480
1033.213;   27.307;  -12.500;  735.420
1033.762;   26.408;  -11.910;  635.620
1034.311;   25.836;   -9.640;  677.220
1034.860;   26.398;  -13.310;  691.000
1035.408;   26.571;  -11.830;  722.720
1035.957;   26.674;  -12.000;  719.540
1036.506;   24.356;  -11.690;  530.800
1037.055;   26.522;  -10.990;  844.320
1037.603;   25.563;  -15.120;  664.000
1038.152;   24.033;  -12.450;  534.760
1038.700;   24.698;  -10.560;  585.740
1039.249;   23.775;  -11.080;  681.220
1039.797;   25.141;  -12.540;  633.360
1040.345;   24.952;  -11.920;  705.420
1040.894;   24.470;  -11.410;  625.300
1041.442;   23.731;  -14.320;  632.200
1041.990;   24.145;  -16.240;  559.160
1042.538;   22.943;  -11.680;  536.180
1043.087;   22.717;  -10.760;  570.860
1043.635;   24.039;  -11.850;  670.500
1044.183;   22.856;  -15.480;  586.400
1044.731;   22.744;  -11.770;  576.000
1045.279;   22.058;  -13.090;  674.920
1045.827;   23.682;  -12.440;  892.400
1046.374;   22.033;  -13.840;  515.420
1046.922;   21.761;  -13.220;  590.580
1047.470;   22.529;  -10.230;  691.300
1048.018;   22.246;  -14.590;  647.960
1048.565;   23.372;  -12.050;  708.600
1049.113;   20.973;  -11.650;  557.000
1049.660;   21.055;  -10.510;  629.660
1050.208;   21.263;  -13.310;  675.640
1050.755;   20.302;  -15.900;  606.580
1051.303;   21.680;  -11.430;  686.820
1051.850;   20.392;   -8.480;  635.120
1052.397;   18.928;  -15.010;  473.960
1052.945;   20.819;  -13.960;  617.760
1053.492;   22.026;  -13.150;  741.840
1054.039;   21.385;   -9.630;  720.180
1054.586;   20.229;  -13.680;  557.240
1055.133;   20.728;  -14.570;  693.140
1055.680;   19.924;  -13.820;  646.620
1056.227;   19.621;  -11.730;  542.780
1056.774;   20.919;  -12.480;  794.980
1057.321;   19.045;  -13.930;  523.260
1057.868;   19.496;  -11.690;  651.320
1058.415;   18.793;   -9.520;  651.980
1058.961;   19.555;  -13.160;  678.940
1059.508;   19.129;  -12.920;  643.820
1060.055;   19.393;  -11.920;  581.780
1060.601;   19.007;  -11.500;  624.300
1061.148;   18.872;  -14.330;  616.820
1061.694;   18.181;  -16.870;  592.580
1062.241;   18.563;  -10.330;  596.320
1062.787;   18.243;  -10.620;  663.140
1063.334;   19.515;  -10.110;  808.560
1063.880;   17.881;  -13.400;  668.360
1064.426;   17.688;  -10.680;  706.820
1064.972;   17.107;   -9.920;  601.340
1065.518;   16.022;  -10.980;  566.640
1066.065;   18.411;  -14.890;  624.460
1066.611;   16.410;  -12.870;  598.800
1067.157;   17.826;  -12.950;  641.860
1067.703;   16.895;  -13.540;  668.480
1068.249;   17.214;  -13.540;  605.220
1068.794;   17.751;  -12.600;  626.880
1069.340;   15.843;  -10.620;  578.960
1069.886;   16.371;  -12.830;  590.700
1070.432;   15.488;  -14.870;  541.720
1070.977;   15.466;  -11.980;  601.080
1071.523;   15.141;   -8.200;  573.060
1072.068;   15.374;  -12.330;  582.000
1072.614;   15.942;  -16.370;  527.760
1073.160;   16.103;  -11.100;  687.040
1073.705;   14.902;  -10.480;  572.520
1074.250;   14.644;  -14.520;  559.900
1074.796;   16.489;  -11.460;  655.160
1075.341;   15.842;  -11.950;  664.100
1075.886;   14.726;  -11.460;  594.240
1076.431;   14.601;  -13.770;  649.880
1076.976;   14.438;  -12.680;  639.220
1077.521;   14.263;  -13.170;  583.080
1078.067;   13.489;  -10.860;  579.400
1078.612;   14.083;  -13.920;  661.620
1079.156;   14.208;  -13.880;  601.540
1079.701;   14.714;  -13.120;  693.260
1080.246;   14.780;   -9.940;  696.300
1080.791;   13.993;  -14.740;  625.020
1081.336;   13.804;  -13.750;  659.320
1081.880;   14.273;  -13.400;  649.680
1082.425;   12.583;  -12.220;  573.480
1082.970;   14.405;  -11.610;  717.040
1083.514;   13.248;  -13.580;  597.000
1084.059;   12.624;  -12.810;  586.720
1084.603;   13.102;  -12.320;  565.840
1085.147;   12.884;  -13.190;  645.220
1085.692;   14.116;  -12.480;  716.800
1086.236;   12.456;  -13.020;  503.140
1086.780;   14.318;   -9.190;  751.440
1087.325;   13.038;  -12.480;  654.620
1087.869;   12.988;  -12.450;  610.700
1088.413;   13.072;  -12.240;  705.040
1088.957;   11.358;   -9.020;  543.400
1089.501;   13.153;  -10.320;  766.640
1090.045;   12.338;  -12.720;  726.480
1090.589;   10.745;  -13.690;  569.920
1091.133;   11.987;  -10.020;  673.340
1091.676;   11.785;  -12.330;  591.940
1092.220;   11.449;  -14.970;  600.920
1092.764;   11.999;  -12.430;  706.960
1093.307;   11.516;   -9.800;  673.780
1093.851;    9.823;  -14.970;  556.540
1094.395;   12.228;  -15.310;  683.140
1094.938;   10.787;  -10.370;  632.520
1095.482;   10.577;  -11.050;  559.800
1096.025;   10.495;  -11.840;  710.880
1096.568;   11.573;  -12.840;  779.280
1097.112;    9.500;  -14.700;  508.180
1097.655;   10.496;   -8.720;  603.000
1098.198;    9.294;  -13.610;  600.180
1098.741;    9.206;  -13.350;  612.860
1099.285;   10.476;  -11.230;  657.300
1099.828;    8.908;  -11.840;  439.400
1100.371;    9.814;  -10.840;  608.160
1100.914;    9.660;  -14.190;  682.660
1101.457;   10.041;  -11.240;  679.900
1101.999;    8.398;  -11.270;  584.680
1102.542;    9.559;  -11.480;  641.440
1103.085;    9.044;  -11.750;  658.500
1103.628;    9.679;  -11.400;  762.060
1104.170;    8.586;  -10.490;  588.280
1104.713;    9.192;  -10.600;  646.700
1105.256;    8.175;  -14.360;  557.440
1105.798;    7.828;  -13.210;  499.980
1106.341;    9.189;  -10.270;  728.900
1106.883;    7.667;  -12.200;  521.340
1107.425;    8.638;  -13.110;  668.180
1107.968;    7.933;  -12.840;  612.380
1108.510;    8.910;   -6.480;  684.960
1109.052;    6.577;  -13.940;  612.620
1109.594;    7.319;  -13.690;  554.440
1110.136;    8.105;  -11.880;  643.220
1110.679;    7.906;   -9.500;  633.080
1111.221;    8.204;  -14.160;  604.460
1111.763;    7.476;  -13.980;  559.220
1112.304;    6.024;  -13.880;  547.140
1112.846;    7.420;  -12.210;  666.240
1113.388;   10.125;  -11.390;  942.180
1113.930;    7.606;  -14.540;  694.200
1114.472;    6.763;  -12.640;  606.540
1115.013;    5.085;  -11.620;  551.280
1115.555;    5.947;  -13.640;  587.100
1116.097;    6.227;  -15.380;  579.480
1116.638;    7.244;  -12.640;  684.600
1117.180;    6.814;   -9.850;  667.740
1117.721;    6.556;  -13.690;  568.580
1118.262;    7.251;  -12.680;  677.960
1118.804;    6.960;  -12.530;  637.340
1119.345;    5.582;  -11.690;  578.400
1119.886;    6.292;  -13.380;  704.040
1120.427;    6.137;  -14.070;  589.020
1120.969;    5.349;  -13.500;  597.920
1121.510;    4.494;  -11.480;  563.060
1122.051;    5.611;  -12.830;  723.580
1122.592;    5.247;  -14.290;  655.420
1123.133;    4.251;  -12.400;  547.940
1123.673;    6.177;  -10.130;  706.480
1124.214;    5.630;  -12.930;  612.460
1124.755;    6.232;  -14.380;  639.460
1125.296;    5.597;  -14.000;  627.320
1125.836;    5.998;  -10.070;  691.500
1126.377;    4.723;  -12.640;  599.660
1126.918;    5.278;  -12.960;  614.980
1127.458;    4.703;  -13.350;  622.220
1127.999;    4.340;  -10.750;  656.980
1128.539;    5.425;  -12.350;  694.240
1129.079;    4.111;  -14.860;  632.720
1129.620;    4.151;  -13.840;  558.100
1130.160;    3.461;  -12.330;  539.480
1130.700;    4.544;  -14.530;  640.840
1131.240;    4.826;  -12.530;  643.700
1131.781;    4.157;  -14.450;  619.680
1132.321;    4.231;   -9.790;  599.120
1132.861;    2.843;  -14.860;  564.200
1133.401;    3.264;  -14.290;  593.940
1133.941;    3.988;  -11.750;  626.280
1134.481;    3.188;   -9.920;  597.580
1135.020;    3.389;  -12.290;  609.160
1135.560;    3.488;  -11.650;  674.940
1136.100;    3.363;  -16.270;  501.160
1136.640;    2.907;  -10.890;  510.480
1137.179;    2.660;  -14.180;  537.960
1137.719;    3.576;  -16.250;  605.400
1138.258;    2.989;  -14.230;  587.360
1138.798;    2.959;   -9.090;  663.780
1139.337;    1.525;  -15.130;  482.840
1139.877;    3.039;  -13.680;  642.360
1140.416;    5.323;  -11.320;  878.060
1140.955;    1.446;  -10.860;  535.380
1141.494;    2.749;  -12.920;  669.280
1142.034;    1.918;  -13.930;  583.520
1142.573;    3.055;  -11.440;  646.280
1143.112;    1.445;  -12.000;  553.480
1143.651;    1.942;  -13.670;  536.480
1144.190;    3.339;  -12.730;  691.640
1144.729;    2.625;  -14.560;  607.420
1145.267;    1.865;  -11.830;  584.900
1145.806;    2.129;  -12.230;  637.040
1146.345;    1.697;  -14.130;  635.020
1146.884;    1.393;  -11.590;  622.500
1147.422;    0.616;  -12.550;  533.060
1147.961;    2.647;  -11.180;  708.460
1148.500;    2.572;  -11.510;  669.720
1149.038;    2.032;  -11.640;  632.500
1149.577;    2.367;  -10.130;  698.640
1150.115;   -0.070;  -13.970;  452.280
1150.653;    1.853;  -14.520;  607.340
1151.192;    1.623;  -12.810;  552.920
1151.730;    0.950;   -9.100;  652.560
1152.268;    0.382;  -12.220;  589.520
1152.806;    0.237;  -14.140;  571.180
1153.344;    0.186;  -12.350;  577.640
1153.882;    0.503;   -8.980;  600.060
1154.421;   -0.535;  -15.190;  470.620
1154.958;    0.124;  -15.210;  595.240
1155.496;    1.680;  -12.850;  645.280
1156.034;    0.594;   -9.940;  721.880
1156.572;    1.638;  -13.570;  667.060
1157.110;   -0.249;  -14.590;  473.940
1157.647;    1.234;  -13.030;  676.960
1158.185;   -0.486;  -12.140;  564.320
1158.723;   -1.364;  -14.390;  509.200
1159.260;    0.241;  -14.090;  701.700
1159.798;    1.082;  -11.920;  658.160
1160.335;   -0.585;  -11.110;  631.820

