
Integration time [ms]:   3.276
Averaging Nr. [scans]: 1000
Smoothing Nr. [pixels]: 0
Data measured with spectrometer [name]: 7414430SP
Wave   ;Sample   ;Dark     ;Reference
[nm]   ;[counts] ;[counts] ;[counts] 

288.544;  148.819;    7.793;  793.890
289.143;  153.434;    7.462;  681.602
289.742;  153.275;    8.602;  828.814
290.341;  138.827;    1.321;  789.841
290.940;  128.640;   -0.709;  730.702
291.538;  128.703;    0.881;  881.108
292.137;  128.963;    0.122;  792.581
292.736;  133.737;   -1.929;  975.101
293.335;  130.573;   -8.229;  735.086
293.934;  130.726;   -5.279;  781.677
294.532;  129.584;   -1.369; 1031.958
295.131;  115.481;   -7.641;  834.394
295.730;  114.561;   -8.420;  809.588
296.328;  114.744;   -5.611;  783.442
296.927;  115.261;   -5.781;  779.652
297.525;  116.317;   -6.361;  781.236
298.124;  106.512;  -11.382;  654.009
298.722;  110.365;   -7.641;  761.933
299.321;  108.942;   -6.811;  708.597
299.919;  105.798;   -6.991;  751.918
300.518;  102.943;  -10.362;  689.338
301.116;  104.573;   -9.581;  691.381
301.715;  104.640;   -4.891;  730.222
302.313;  103.530;   -8.801;  704.943
302.911;   99.490;   -8.522;  733.830
303.509;  103.701;   -6.171;  925.627
304.108;  102.625;   -7.311;  760.383
304.706;  102.089;   -8.321;  801.664
305.304;   95.832;  -10.222;  796.707
305.902;  100.898;   -6.021;  784.484
306.500;   96.837;   -4.971;  728.200
307.098;   94.872;   -7.061;  746.560
307.696;   94.127;   -8.801;  780.432
308.294;   94.158;   -6.411;  731.359
308.892;   95.870;   -2.901;  759.769
309.490;   92.323;   -5.041;  712.161
310.088;   90.623;   -5.002;  788.444
310.686;   94.291;   -2.041;  821.749
311.284;   90.365;   -2.351;  766.040
311.882;   87.016;   -4.422;  731.225
312.480;   85.061;   -4.192;  697.167
313.078;   85.830;   -1.172;  808.331
313.675;   86.636;   -2.601;  691.600
314.273;   82.676;   -1.312;  797.837
314.871;   81.682;   -3.942;  589.829
315.468;   79.543;   -2.802;  652.090
316.066;   82.063;   -0.701;  694.427
316.664;   75.798;   -4.362;  656.351
317.261;   79.137;   -2.872;  910.128
317.859;   75.499;   -2.022;  768.735
318.456;   74.630;   -0.531;  830.096
319.054;   70.875;   -3.912;  787.828
319.651;   70.330;   -4.752;  759.928
320.249;   69.459;   -2.602;  810.188
320.846;   66.452;   -0.821;  714.286
321.443;   64.569;   -4.642;  832.135
322.041;   61.745;   -5.002;  812.315
322.638;   58.053;   -3.982;  701.456
323.235;   60.855;   -3.411;  665.683
323.833;   57.145;   -7.361;  740.354
324.430;   52.631;   -8.611;  615.900
325.027;   53.437;   -4.061;  876.855
325.624;   53.134;   -4.031;  644.532
326.221;   50.535;   -7.481;  689.717
326.818;   50.040;   -5.281;  818.332
327.415;   54.062;   -7.460;  748.828
328.012;   53.170;   -5.510;  690.585
328.609;   51.416;   -7.880;  731.389
329.206;   49.170;   -8.331;  778.621
329.803;   49.736;   -5.121;  737.841
330.400;   51.803;   -4.510;  704.260
330.997;   54.164;   -6.441;  817.147
331.594;   52.290;   -8.831;  788.185
332.191;   57.475;   -7.621;  728.722
332.787;   60.039;   -4.591;  844.463
333.384;   59.857;   -7.412;  763.093
333.981;   57.643;   -8.293;  815.687
334.578;   60.481;   -7.052;  708.378
335.174;   62.817;   -3.102;  731.469
335.771;   62.511;   -5.943;  836.456
336.367;   59.817;   -7.393;  710.631
336.964;   64.230;   -4.063;  793.266
337.561;   61.343;   -3.813;  731.112
338.157;   57.732;   -4.654;  911.916
338.754;   53.674;   -7.934;  796.589
339.350;   52.896;   -4.414;  722.493
339.946;   55.593;   -4.664;  773.135
340.543;   46.367;   -6.375;  846.136
341.139;   41.614;   -9.815;  720.836
341.735;   39.233;   -4.526;  772.593
342.332;   37.874;   -4.895;  691.472
342.928;   38.199;   -4.295;  795.394
343.524;   33.177;   -5.476;  761.684
344.120;   29.492;   -5.856;  738.562
344.716;   31.633;   -2.155;  723.717
345.313;   30.237;   -6.275;  795.342
345.909;   24.751;   -8.815;  627.336
346.505;   26.648;   -5.305;  740.247
347.101;   25.601;   -2.674;  827.864
347.697;   27.009;   -4.344;  785.398
348.293;   21.822;   -9.975;  627.244
348.889;   22.933;   -5.774;  745.914
349.485;   22.672;   -5.004;  688.205
350.081;   22.526;   -4.704;  772.592
350.676;   18.699;   -6.635;  691.606
351.272;   21.441;   -4.504;  809.530
351.868;   21.181;   -3.914;  780.497
352.464;   19.500;   -9.044;  723.932
353.059;   15.837;   -8.314;  646.017
353.655;   18.688;   -7.024;  777.063
354.251;   19.990;   -5.343;  759.845
354.846;   14.268;   -8.604;  740.646
355.442;   11.919;   -6.945;  753.071
356.038;   14.226;   -7.564;  751.708
356.633;   14.222;   -5.814;  728.594
357.229;   12.047;   -7.364;  724.757
357.824;    9.972;   -8.024;  703.600
358.420;    9.785;   -9.384;  679.726
359.015;    9.936;   -5.104;  695.357
359.610;   11.291;   -6.854;  763.920
360.206;    4.947;  -10.185;  603.240
360.801;    8.344;   -7.054;  646.503
361.396;    9.931;   -5.034;  725.975
361.992;    5.254;   -8.284;  668.220
362.587;    3.231;   -8.625;  670.160
363.182;    4.864;   -7.674;  689.631
363.777;    5.202;   -5.164;  738.242
364.372;    5.049;   -8.604;  737.314
364.967;    2.024;   -9.055;  680.744
365.563;    6.228;   -6.114;  815.567
366.158;    2.822;   -5.814;  685.161
366.753;    2.918;   -7.854;  649.263
367.348;    1.626;   -7.804;  746.056
367.942;    2.484;   -7.954;  697.298
368.537;    0.661;   -4.984;  754.245
369.132;    0.941;   -8.564;  703.428
369.727;   -3.098;   -8.855;  638.079
370.322;   -1.750;   -6.245;  580.186
370.917;   -2.198;   -6.425;  710.646
371.511;    0.907;   -6.294;  861.834
372.106;   -2.880;   -7.685;  776.964
372.701;   -5.716;   -7.335;  585.988
373.296;   -0.526;   -4.564;  863.135
373.890;   -4.562;  -10.235;  647.840
374.485;   -7.896;   -7.885;  691.199
375.079;   -3.399;   -7.324;  738.685
375.674;   -2.673;   -3.494;  812.970
376.268;   -5.968;   -8.525;  691.759
376.863;  -11.870;  -10.086;  580.327
377.457;   -6.315;   -7.025;  662.490
378.052;   -8.509;   -3.585;  764.884
378.646;   -7.965;   -7.595;  741.167
379.240;   -9.180;   -8.335;  721.176
379.835;   -8.146;   -5.785;  636.978
380.429;  -10.248;   -4.335;  562.557
381.023;   -9.747;   -6.805;  779.205
381.617;  -11.947;   -9.195;  680.106
382.212;   -8.760;   -6.905;  685.303
382.806;   -8.259;   -3.745;  760.690
383.400;  -12.068;   -7.745;  672.281
383.994;  -13.075;   -9.765;  664.870
384.588;   -9.113;   -6.564;  697.701
385.182;   -7.888;   -5.344;  726.624
385.776;   -9.547;   -8.514;  706.875
386.370;  -12.366;   -9.555;  681.968
386.964;  -11.491;   -8.715;  684.155
387.558;  -10.427;   -6.174;  598.360
388.152;  -13.351;   -8.725;  681.959
388.745;  -11.771;   -7.965;  814.707
389.339;  -10.517;   -5.924;  747.642
389.933;   -9.440;   -5.524;  695.370
390.527;   -9.994;   -7.114;  859.029
391.120;  -16.082;  -10.725;  595.318
391.714;  -13.325;   -8.035;  711.633
392.308;  -10.576;   -3.574;  780.253
392.901;  -13.811;   -7.245;  642.460
393.495;  -15.789;   -9.285;  595.414
394.089;  -14.166;   -5.895;  760.452
394.682;  -14.311;   -4.295;  697.188
395.275;  -14.763;   -9.875;  719.927
395.869;  -15.827;   -8.485;  667.314
396.462;  -15.065;   -7.455;  616.609
397.056;  -11.382;   -5.424;  776.621
397.649;  -15.411;   -6.605;  731.575
398.242;  -12.462;   -8.224;  712.645
398.836;  -10.979;   -7.474;  766.408
399.429;  -13.152;   -7.094;  631.041
400.022;  -16.838;   -9.475;  665.902
400.615;  -13.570;   -7.145;  805.609
401.208;  -11.607;   -7.174;  691.451
401.802;  -14.054;   -5.515;  699.329
402.395;  -16.047;   -9.875;  683.502
402.988;  -16.335;   -8.845;  696.627
403.581;  -13.287;   -8.874;  646.878
404.174;  -10.849;   -5.324;  686.568
404.767;  -13.524;   -9.575;  638.583
405.360;  -16.625;  -10.965;  621.445
405.953;  -10.647;   -8.764;  759.034
406.545;  -10.782;   -7.514;  725.342
407.138;  -14.976;  -10.025;  618.350
407.731;  -13.028;  -10.034;  613.303
408.324;   -9.278;   -9.374;  660.554
408.917;  -11.212;   -6.534;  681.864
409.509;  -12.541;   -8.004;  740.396
410.102;  -13.734;   -9.875;  643.948
410.695;   -8.735;   -8.604;  665.758
411.287;   -9.712;   -6.794;  599.821
411.880;  -10.465;   -9.334;  585.421
412.472;  -13.581;  -10.254;  613.092
413.065;   -9.960;   -6.714;  629.408
413.657;   -8.317;   -7.234;  576.678
414.250;   -8.994;  -10.544;  646.681
414.842;  -10.293;   -9.744;  676.353
415.434;   -8.646;   -6.994;  570.463
416.027;   -3.873;   -5.893;  652.196
416.619;   -5.336;   -7.264;  713.400
417.211;   -5.863;  -10.374;  599.352
417.804;   -3.574;   -7.993;  628.499
418.396;   -6.549;   -7.234;  607.643
418.988;   -4.899;   -9.443;  659.238
419.580;   -7.688;  -10.724;  568.276
420.172;   -5.265;  -10.323;  536.196
420.764;   -1.962;   -8.793;  672.482
421.356;   -3.208;  -11.143;  636.898
421.948;   -2.931;   -8.293;  677.661
422.540;    1.315;   -7.893;  680.027
423.132;    0.773;   -7.082;  600.641
423.724;   -2.930;   -8.653;  561.267
424.316;   -0.974;  -10.213;  621.345
424.908;    2.823;   -9.762;  591.517
425.500;    3.219;   -5.572;  647.978
426.092;    3.763;   -8.422;  648.268
426.683;    2.769;   -9.283;  684.836
427.275;    5.923;   -7.852;  641.471
427.867;    7.482;   -5.272;  668.948
428.458;    7.405;   -7.682;  732.344
429.050;    5.839;  -10.612;  680.749
429.642;    7.779;   -9.882;  743.124
430.233;    8.927;   -6.962;  569.356
430.825;    9.674;   -6.842;  724.809
431.416;    7.604;   -9.672;  698.241
432.008;   10.905;   -6.552;  651.723
432.599;   11.711;   -6.891;  656.073
433.190;    8.707;  -10.912;  637.670
433.782;    8.008;  -11.172;  590.395
434.373;   15.544;   -6.061;  884.765
434.964;   13.790;   -8.251;  602.920
435.556;   12.106;   -9.722;  634.537
436.147;   15.040;   -9.082;  758.490
436.738;   14.373;   -8.041;  701.099
437.329;   19.557;   -7.341;  721.723
437.920;   12.448;   -8.162;  666.688
438.511;   13.065;  -11.802;  564.526
439.103;   19.657;  -10.191;  623.998
439.694;   21.197;   -7.601;  681.583
440.285;   22.214;   -8.541;  764.432
440.876;   20.348;   -9.751;  845.738
441.466;   19.661;   -9.401;  575.162
442.057;   24.965;   -7.760;  665.814
442.648;   22.899;   -9.971;  746.255
443.239;   22.070;  -11.001;  620.477
443.830;   26.044;   -7.990;  704.958
444.421;   28.787;   -7.910;  655.474
445.011;   24.465;   -8.131;  693.619
445.602;   24.792;   -7.111;  743.126
446.193;   26.536;  -10.920;  488.117
446.783;   30.963;   -6.500;  640.397
447.374;   26.398;   -8.671;  692.759
447.964;   27.211;  -10.781;  713.770
448.555;   35.337;   -9.650;  822.742
449.145;   32.799;   -8.660;  662.853
449.736;   32.419;   -8.990;  803.179
450.326;   33.066;   -9.500;  713.626
450.917;   37.922;   -8.680;  675.324
451.507;   36.874;   -7.520;  600.661
452.097;   38.148;   -8.590;  746.267
452.688;   38.498;  -11.340;  742.160
453.278;   38.033;  -10.100;  566.840
453.868;   42.319;   -6.019;  793.550
454.458;   39.971;   -9.440;  651.141
455.048;   40.613;  -10.560;  711.783
455.639;   42.934;  -11.799;  567.096
456.229;   45.786;   -6.899;  710.694
456.819;   47.373;   -7.389;  751.158
457.409;   48.479;  -11.119;  773.993
457.999;   50.662;   -9.289;  737.505
458.589;   50.721;   -6.139;  686.606
459.179;   51.003;   -8.729;  717.658
459.769;   49.288;   -9.789;  627.099
460.358;   52.768;  -10.259;  797.262
460.948;   52.991;   -7.299;  689.503
461.538;   55.430;  -10.289;  660.677
462.128;   53.724;  -11.269;  664.934
462.717;   59.379;   -9.368;  710.326
463.307;   62.628;   -7.908;  705.846
463.897;   58.505;   -9.599;  656.942
464.486;   57.235;   -9.769;  837.128
465.076;   61.957;   -8.048;  733.776
465.666;   65.457;   -9.358;  652.900
466.255;   63.529;   -7.919;  785.651
466.845;   62.846;  -11.689;  666.749
467.434;   65.597;   -7.818;  725.873
468.023;   67.155;   -7.678;  658.357
468.613;   64.091;  -10.939;  713.946
469.202;   68.403;  -10.118;  646.507
469.791;   72.235;   -9.108;  737.811
470.381;   74.275;   -6.058;  742.813
470.970;   73.924;  -10.428;  711.099
471.559;   74.432;  -10.268;  733.291
472.148;   77.137;   -8.448;  675.737
472.738;   79.250;   -6.917;  765.466
473.327;   79.461;  -11.978;  637.529
473.916;   78.498;  -11.888;  737.446
474.505;   83.497;   -9.437;  751.703
475.094;   86.077;   -6.747;  806.570
475.683;   85.495;   -9.367;  797.699
476.272;   87.404;  -12.637;  730.632
476.861;   88.980;  -10.027;  706.754
477.449;   95.783;   -8.716;  728.487
478.038;   90.088;   -9.577;  692.513
478.627;   91.630;   -9.718;  714.852
479.216;   98.820;   -8.947;  769.441
479.805;  100.450;   -6.256;  783.375
480.393;  100.073;   -7.937; 1008.945
480.982;   99.228;   -7.717;  874.501
481.571;  105.759;   -9.266;  858.333
482.159;  106.344;   -7.636;  705.386
482.748;  105.908;   -9.667;  821.385
483.336;  110.953;  -10.376;  858.209
483.925;  112.293;   -7.147;  774.373
484.513;  117.596;   -7.996;  758.962
485.102;  115.080;  -10.027;  810.965
485.690;  123.864;  -10.446; 1011.050
486.278;  125.947;   -8.446;  979.329
486.867;  126.832;   -6.356;  809.662
487.455;  128.079;   -9.136;  898.229
488.043;  129.771;  -10.646;  748.361
488.631;  138.833;   -7.456; 1005.079
489.220;  142.133;   -6.636;  908.626
489.808;  143.188;  -11.036;  741.415
490.396;  151.449;  -10.246;  914.645
490.984;  157.458;   -8.556;  830.161
491.572;  168.790;   -5.886;  940.315
492.160;  176.314;   -9.486;  919.081
492.748;  189.383;  -10.976;  884.341
493.336;  214.863;   -8.776; 1019.693
493.924;  242.666;   -5.465;  958.077
494.512;  274.966;   -9.986; 1066.638
495.100;  318.355;  -10.636; 1103.280
495.687;  376.176;  -10.885; 1206.373
496.275;  441.414;   -8.126; 1150.796
496.863;  511.338;  -10.586; 1281.171
497.451;  620.360;  -11.926; 1386.805
498.038;  776.209;  -10.885; 1556.729
498.626;  905.120;   -6.315; 1741.407
499.214; 1054.012;   -7.326; 2016.609
499.801; 1273.599;  -11.906; 2220.633
500.389; 1556.657;  -10.466; 2312.494
500.976; 1926.421;   -5.236; 2744.849
501.564; 2355.577;   -8.936; 3148.565
502.151; 2758.820;  -13.176; 3515.999
502.738; 3292.002;  -10.646; 3971.274
503.326; 3693.417;   -9.525; 4403.796
503.913; 4129.361;  -10.856; 5161.749
504.500; 4440.590;  -11.586; 5986.420
505.088; 4855.045;  -10.336; 6381.201
505.675; 5428.535;   -6.355; 6925.547
506.262; 6052.417;   -9.046; 7619.060
506.849; 6804.499;  -10.416; 8733.969
507.436; 7317.079;  -10.305; 9790.121
508.023; 7723.434;   -5.496; 9985.472
508.610; 8059.956;   -7.856;10434.618
509.197; 8914.061;  -10.097;11198.435
509.784;10586.606;  -10.886;12391.194
510.371;11752.825;   -9.315;13603.713
510.958;12530.537;   -9.936;14426.586
511.545;13167.698;   -9.326;15243.775
512.132;13571.961;  -10.075;15945.876
512.719;14164.686;   -7.796;16340.369
513.305;15548.190;  -10.606;18011.766
513.892;16398.693;  -11.486;19754.971
514.479;17865.199;   -9.126;20967.805
515.066;19130.111;   -6.026;22299.793
515.652;20177.215;   -8.466;22908.660
516.239;21614.533;  -10.886;23798.875
516.825;21903.436;  -11.496;25567.275
517.412;22418.654;   -5.796;28154.959
517.998;23475.527;  -10.506;28344.111
518.585;23776.842;  -10.076;27134.219
519.171;23780.467;   -8.315;27268.576
519.758;25305.896;   -8.596;28964.129
520.344;26596.352;   -8.466;30664.494
520.930;26708.584;  -11.006;32550.605
521.516;28542.691;  -10.495;35422.895
522.103;31043.725;   -5.526;38280.004
522.689;31770.332;   -8.746;37835.117
523.275;30577.063;  -11.376;37288.613
523.861;30568.109;  -11.156;37281.395
524.447;32154.592;   -8.135;37846.949
525.033;32340.723;   -7.896;38321.949
525.619;32906.289;  -12.476;38579.285
526.205;34129.824;   -9.516;40622.875
526.791;36199.094;   -6.926;42258.836
527.377;36564.551;   -8.346;42966.902
527.963;38517.344;   -8.717;42018.949
528.549;37790.215;  -11.016;42476.828
529.135;35557.766;   -8.536;41854.852
529.721;34973.867;   -9.666;41237.711
530.306;34641.867;  -10.066;41259.445
530.892;35281.438;  -11.356;41506.047
531.478;36391.063;   -6.596;43559.613
532.063;38095.676;   -8.836;47695.563
532.649;38334.676;  -10.047;50808.324
533.235;40752.965;   -9.746;51787.500
533.820;42336.449;   -6.566;52145.035
534.406;42084.477;  -10.817;51133.488
534.991;41066.836;   -9.416;49996.805
535.576;40013.426;   -9.036;48882.852
536.162;40482.668;   -6.156;46942.285
536.747;41264.055;  -11.607;45711.746
537.333;44358.418;  -11.787;48510.180
537.918;46524.051;  -12.437;50439.891
538.503;45056.996;   -7.196;50863.711
539.088;42674.086;  -10.556;50906.922
539.673;44361.766;   -8.767;52621.965
540.259;44572.090;  -10.026;52368.094
540.844;41361.379;   -7.416;50879.109
541.429;41512.719;   -9.467;52077.777
542.014;45179.367;   -9.527;52716.695
542.599;45882.789;   -9.946;52363.281
543.184;42441.750;   -7.927;53187.137
543.769;42982.191;   -9.297;54697.605
544.354;43250.402;  -10.127;53913.914
544.938;42963.773;   -9.267;49680.164
545.523;45070.809;   -6.506;47386.277
546.108;46714.766;   -9.787;49151.949
546.693;48441.375;  -11.587;51384.637
547.278;48130.137;  -10.986;51853.254
547.862;44383.152;   -8.206;51173.750
548.447;40614.793;  -10.067;51691.395
549.031;40325.449;   -9.637;52456.703
549.616;44594.430;   -9.926;52714.516
550.201;44538.895;   -6.347;52414.598
550.785;43919.297;   -7.917;52355.059
551.370;43547.820;  -10.867;54589.453
551.954;44316.422;   -9.047;58267.348
552.538;46289.145;   -7.827;59062.176
553.123;45723.477;  -10.287;58115.285
553.707;43420.930;  -12.178;56556.285
554.291;43199.234;   -8.717;56201.668
554.876;42806.730;   -7.457;55335.762
555.460;43698.047;  -10.387;54155.703
556.044;46148.813;   -9.618;53721.484
556.628;44228.410;  -11.567;53731.016
557.212;44119.176;   -8.097;54312.531
557.796;42899.246;  -11.077;53797.773
558.380;43262.746;  -11.108;56145.984
558.964;42994.430;   -9.057;57277.930
559.548;42718.773;   -6.977;56459.641
560.132;41484.637;  -11.457;54434.543
560.716;40647.195;  -11.378;54800.617
561.300;40380.637;   -9.577;57606.945
561.884;41423.414;   -7.127;58972.445
562.467;40959.602;   -7.118;57327.570
563.051;40526.219;  -13.358;54962.434
563.635;41053.613;  -10.178;52594.473
564.219;42362.496;   -7.837;50610.410
564.802;43171.414;  -11.398;49551.180
565.386;43014.152;  -12.788;48370.953
565.969;42341.285;   -9.077;48178.871
566.553;42242.617;   -6.207;49957.305
567.136;42358.582;   -8.568;50369.594
567.720;38833.730;  -11.868;49492.004
568.303;37514.973;   -8.268;50616.352
568.887;37581.020;   -8.698;50727.148
569.470;37969.480;   -6.808;51698.379
570.053;36224.910;  -13.188;52122.078
570.637;35205.605;  -12.037;52536.438
571.220;34928.070;   -8.577;51186.098
571.803;35241.969;   -8.498;51032.762
572.386;37137.508;  -10.498;49609.887
572.969;40056.520;   -9.388;48285.926
573.552;38812.609;   -8.338;47624.285
574.135;38011.488;   -8.518;45498.641
574.718;34314.539;  -13.628;41970.434
575.301;32387.982;  -10.893;41447.137
575.884;30461.424;   -8.158;40923.836
576.467;31729.758;  -10.328;45267.723
577.050;35769.523;  -13.058;48175.543
577.633;38175.082;   -9.458;47729.328
578.216;37245.945;   -8.928;47579.793
578.799;36457.793;   -9.358;47820.996
579.381;34820.703;  -11.388;48115.551
579.964;33126.855;  -11.718;47333.766
580.547;34099.973;   -8.588;46668.969
581.129;34610.777;   -8.859;44466.141
581.712;34572.762;  -10.729;44164.922
582.294;35386.906;  -11.118;46477.855
582.877;36603.496;   -5.218;48244.254
583.459;35290.348;   -8.679;47437.895
584.042;33706.414;  -10.709;46943.219
584.624;33810.863;  -11.669;46792.227
585.206;32523.768;   -8.218;46557.250
585.789;33169.219;  -10.569;45793.773
586.371;36072.758;  -11.859;43836.391
586.953;36105.359;  -10.719;42972.492
587.536;36519.852;   -7.198;42487.211
588.118;36509.141;   -8.720;42086.414
588.700;33667.844;  -10.439;43389.930
589.282;32466.377;   -9.198;43646.039
589.864;32708.189;   -9.199;43438.109
590.446;33688.492;  -11.319;43151.926
591.028;32422.586;  -11.159;42781.867
591.610;29885.654;  -11.779;42839.098
592.192;25898.998;   -7.668;42820.402
592.774;25012.135;  -11.949;40724.277
593.356;26205.131;  -12.129;39874.789
593.937;28211.080;  -10.669;39980.648
594.519;31168.285;   -6.509;42069.633
595.101;33077.891;  -10.849;42976.031
595.683;33264.879;  -11.679;44084.441
596.264;34411.984;   -9.049;43478.797
596.846;32821.535;   -8.849;43803.672
597.427;31947.936;   -9.570;42986.934
598.009;33920.262;  -12.620;42832.219
598.591;34439.863;  -10.039;42580.086
599.172;34026.559;  -10.369;43061.805
599.753;34266.102;   -9.140;41691.469
600.335;35466.648;  -11.430;40692.520
600.916;33638.074;   -9.939;39982.422
601.498;32166.551;   -8.479;40318.617
602.079;31237.143;  -10.920;40670.609
602.660;31015.602;  -11.480;41450.898
603.241;30821.596;  -11.699;41137.738
603.823;29138.619;   -9.579;38868.797
604.404;29961.273;  -10.620;38182.785
604.985;31376.752;  -10.450;38078.047
605.566;30567.521;   -9.129;38056.633
606.147;30284.820;   -7.510;37020.418
606.728;32772.242;  -10.660;37883.359
607.309;31917.330;  -11.740;38748.273
607.890;30888.426;   -9.759;38850.230
608.471;30362.572;   -8.250;37457.918
609.051;30227.254;   -9.240;36066.457
609.632;29168.342;  -12.120;35991.074
610.213;29751.389;   -9.110;37402.641
610.794;29877.986;   -8.030;38383.363
611.374;28441.475;   -8.110;40562.387
611.955;28259.152;  -13.560;38533.727
612.536;29892.037;  -11.400;36951.789
613.116;30297.340;   -8.070;37197.891
613.697;30893.820;  -10.830;38411.125
614.277;29305.779;  -11.641;38673.938
614.858;30109.141;  -13.310;37075.863
615.438;30464.297;   -7.460;35092.906
616.019;28073.600;   -7.601;33666.301
616.599;28349.781;  -12.020;34189.023
617.179;30095.459;  -11.780;36952.047
617.760;30310.443;   -8.570;39582.574
618.340;31795.941;  -11.471;38943.977
618.920;33231.402;  -11.170;37594.156
619.500;32705.775;  -11.071;37866.938
620.080;32473.955;   -7.750;37869.043
620.660;33451.988;  -12.711;36868.617
621.241;33773.680;  -10.211;36352.309
621.821;33109.426;  -10.961;35459.520
622.401;32829.148;   -7.720;35207.414
622.980;31647.033;   -8.981;35980.422
623.560;30281.512;   -9.331;37351.328
624.140;29991.738;   -9.850;34388.582
624.720;26074.494;   -7.451;32368.764
625.300;22209.613;   -9.070;32638.629
625.880;24760.918;  -12.601;34599.035
626.459;28125.785;  -11.751;36831.738
627.039;30677.109;   -9.281;38299.098
627.619;30463.455;   -8.801;38289.574
628.198;28875.844;  -12.071;37220.695
628.778;29163.576;   -9.461;37632.563
629.357;30254.006;   -8.491;38003.012
629.937;30015.273;   -9.721;38402.039
630.516;29242.943;   -9.951;37868.801
631.096;29309.910;  -11.731;35760.410
631.675;32482.096;   -8.572;35225.219
632.254;37518.207;  -11.282;35130.289
632.834;36805.387;  -13.322;35794.570
633.413;35315.938;  -10.301;35788.922
633.992;32699.303;   -8.582;34532.863
634.571;33961.215;   -8.352;33590.113
635.151;35792.641;  -11.912;34943.863
635.730;33462.746;  -10.511;35352.523
636.309;30357.725;   -7.731;35366.605
636.888;27837.258;   -9.952;36165.637
637.467;28103.340;  -11.672;37515.902
638.046;30389.068;   -8.901;39288.695
638.625;33260.438;   -7.912;38279.699
639.204;32900.238;  -10.022;37741.598
639.782;31680.982;  -12.252;38364.551
640.361;28826.893;  -10.041;36740.621
640.940;26360.943;  -11.161;34950.082
641.519;25860.289;   -9.701;34137.398
642.097;27699.533;  -11.271;35654.258
642.676;30970.604;   -8.651;35637.957
643.255;32440.814;   -8.711;36567.074
643.833;30964.639;   -9.581;37809.434
644.412;31349.875;  -13.711;37337.293
644.990;31222.232;  -11.811;37018.531
645.569;31151.959;   -9.411;36518.469
646.147;29387.236;  -10.291;36186.430
646.726;28429.646;  -12.401;36267.688
647.304;29836.564;  -10.411;36647.625
647.882;31058.021;   -9.651;39286.742
648.461;32391.244;   -9.631;39157.703
649.039;32194.219;  -11.881;35412.883
649.617;32328.701;   -9.661;34744.918
650.195;32135.160;   -9.301;35403.098
650.773;31095.705;  -10.511;35053.797
651.352;29037.004;  -11.521;33756.816
651.930;26112.652;  -12.211;31868.773
652.508;23373.887;   -9.171;33121.551
653.086;26776.725;   -9.371;33564.793
653.663;30459.986;  -13.161;34054.668
654.241;29274.602;  -13.031;35693.309
654.819;30098.078;   -9.371;36422.906
655.397;29279.438;  -10.511;38213.484
655.975;29223.734;  -10.371;39507.625
656.553;29817.852;  -10.051;39498.223
657.130;28901.285;  -10.061;40395.480
657.708;28813.787;   -9.561;39242.020
658.286;28859.846;  -11.511;38920.020
658.863;29454.520;  -10.261;40202.898
659.441;30979.893;   -7.531;39677.938
660.018;30119.076;   -9.501;40413.355
660.596;29757.346;  -13.301;39931.414
661.173;31725.852;  -11.211;39604.531
661.750;31731.316;   -9.951;39700.070
662.328;30741.420;   -9.390;39292.809
662.905;30204.043;  -11.330;38235.648
663.482;25960.479;   -9.050;36212.305
664.060;23812.764;   -8.240;35944.945
664.637;26093.537;  -10.050;35170.785
665.214;27753.670;  -11.760;34197.523
665.791;29613.951;  -10.530;34549.520
666.368;29090.768;   -9.690;35118.578
666.945;29863.764;   -9.320;36019.418
667.522;30591.410;  -11.860;36048.438
668.099;30832.332;  -10.770;36243.914
668.676;30608.594;   -6.260;35958.875
669.253;29314.715;   -7.000;37384.730
669.830;29083.545;  -10.190;36779.629
670.407;28418.635;   -9.550;35231.289
670.984;29598.219;   -9.260;35544.270
671.560;29419.344;   -9.280;35466.867
672.137;28087.420;  -11.810;34280.863
672.714;29200.848;  -11.490;34632.863
673.290;29076.805;   -7.740;35135.422
673.867;29021.699;  -10.660;36114.480
674.443;29410.568;  -12.230;36152.859
675.020;27651.357;  -10.450;35327.238
675.596;29144.738;   -9.260;35795.176
676.173;29852.838;  -10.780;35430.355
676.749;28908.912;  -13.690;33549.516
677.326;28852.795;  -11.980;32210.012
677.902;29073.697;   -8.630;32068.871
678.478;28362.207;  -10.730;32583.891
679.054;28923.018;  -10.520;32088.928
679.631;30572.090;  -11.920;30978.848
680.207;31115.707;   -7.490;33160.887
680.783;32100.742;   -9.860;35570.363
681.359;30982.170;  -13.380;36125.184
681.935;29444.105;  -12.480;35240.922
682.511;27863.143;   -7.900;34429.961
683.087;27777.238;   -7.710;34463.680
683.663;28440.783;  -11.480;34648.898
684.239;28492.777;  -14.090;34546.457
684.815;28571.756;   -7.560;35586.375
685.390;28852.084;   -9.910;35821.895
685.966;29123.621;  -11.159;35085.871
686.542;31588.545;  -11.169;34198.230
687.118;33686.660;   -5.959;32847.707
687.693;33662.664;  -10.329;32794.027
688.269;32651.365;  -12.059;33072.367
688.844;29713.043;  -10.909;33141.664
689.420;28224.725;   -8.019;33965.742
689.995;26899.115;   -8.399;34655.523
690.571;26146.086;  -10.949;33576.742
691.146;26715.156;   -9.619;32657.219
691.722;25758.965;   -8.999;32526.979
692.297;25207.184;  -11.589;33014.617
692.872;27129.381;  -11.739;34012.254
693.448;27368.137;  -11.059;34237.434
694.023;26080.576;  -10.139;34142.672
694.598;27792.975;   -9.029;34132.031
695.173;27643.490;  -13.319;34205.250
695.748;27177.980;  -10.169;32882.488
696.323;26964.658;   -8.339;32864.906
696.898;26615.049;   -8.169;33170.004
697.473;26453.760;  -12.309;32432.984
698.048;26609.355;  -10.989;31649.303
698.623;27100.504;   -9.329;30778.141
699.198;28527.590;   -9.849;31140.119
699.773;29187.695;  -12.329;31764.299
700.348;28352.371;  -10.389;31780.816
700.922;28844.627;   -9.269;32046.375
701.497;29171.980;   -9.329;32603.574
702.072;29155.061;  -10.789;34799.871
702.646;28798.199;  -10.839;35793.172
703.221;28099.186;   -9.099;35201.590
703.795;30093.383;  -10.939;34764.527
704.370;29453.840;  -12.859;34307.367
704.944;29158.412;  -11.559;33509.887
705.519;30409.654;   -7.939;31388.584
706.093;31607.984;  -10.499;31340.104
706.668;31284.283;  -11.289;32630.281
707.242;29942.721;  -11.509;32728.779
707.816;28971.658;   -9.639;32947.238
708.390;27382.652;  -11.429;33277.855
708.965;27800.479;  -11.869;33834.336
709.539;28414.145;  -11.689;33709.273
710.113;28901.891;  -10.478;33044.313
710.687;27958.051;  -10.228;31953.992
711.261;25433.615;  -13.698;30505.949
711.835;25171.621;  -13.378;30262.369
712.409;26376.201;   -9.698;31254.447
712.983;27703.070;  -11.898;32754.986
713.557;28787.691;  -15.138;34018.824
714.131;28631.193;  -14.098;34579.625
714.704;27427.857;   -9.958;33890.262
715.278;24939.373;  -10.028;33531.102
715.852;25216.043;  -11.148;33601.660
716.425;26705.939;   -9.068;33515.117
716.999;27031.150;  -10.038;33185.555
717.573;27740.441;   -9.798;33905.996
718.146;28825.232;  -12.378;35199.293
718.720;28892.350;  -11.918;35060.551
719.293;28903.176;   -8.088;34973.230
719.867;31412.457;  -10.888;36394.449
720.440;31515.838;  -11.938;36663.008
721.013;30579.346;  -12.818;35102.426
721.587;29435.096;  -10.298;33985.266
722.160;27044.197;  -10.048;33524.965
722.733;25852.754;  -12.108;32987.043
723.306;26677.246;  -10.818;33066.301
723.880;28588.258;   -8.908;33399.500
724.453;30500.809;   -9.878;33468.297
725.026;29326.305;  -11.188;33816.637
725.599;26155.451;  -11.678;32797.996
726.172;26621.498;   -9.618;33187.434
726.745;28344.611;   -8.258;35136.613
727.318;30192.563;  -12.978;35751.730
727.891;31183.346;  -12.148;35890.430
728.463;31089.291;   -8.968;34822.090
729.036;29769.482;  -10.188;32895.086
729.609;29649.527;  -11.788;31823.225
730.182;25739.809;  -11.788;31445.283
730.754;23413.006;  -10.268;32373.223
731.327;23688.053;   -9.998;33676.820
731.900;23545.922;  -12.228;33417.000
732.472;25149.189;  -13.848;31978.498
733.045;27880.721;   -8.698;30368.777
733.617;27975.568;  -10.607;30574.215
734.190;26907.113;  -11.507;31280.975
734.762;23901.568;  -13.647;31674.412
735.334;22800.707;   -9.767;31247.291
735.907;23607.838;   -9.897;29876.211
736.479;23312.879;  -11.637;29808.488
737.051;22725.121;   -9.567;30233.547
737.623;23849.742;   -8.187;31469.086
738.195;24827.598;  -11.187;31784.225
738.768;26255.408;  -12.337;32120.523
739.340;25835.840;  -12.227;32094.342
739.912;24380.604;  -11.057;31312.680
740.484;23823.457;  -10.207;31946.238
741.056;23012.488;  -10.047;32984.059
741.628;24376.574;  -13.627;33897.715
742.199;26691.045;   -7.177;33213.016
742.771;25695.365;  -10.797;31369.113
743.343;23482.707;  -11.997;31865.473
743.915;21947.357;  -12.867;32388.631
744.487;22033.418;   -7.617;31079.568
745.058;22746.666;   -9.557;30570.107
745.630;24048.703;   -9.877;29970.127
746.201;25435.730;  -14.177;29186.766
746.773;25532.348;   -9.237;28805.723
747.344;24816.121;   -9.847;29591.223
747.916;23090.684;  -11.657;31412.201
748.487;22470.521;  -10.587;32194.898
749.059;23801.461;   -8.707;32533.719
749.630;24980.113;  -10.537;32158.518
750.201;24309.395;  -11.687;30855.395
750.773;23111.355;  -11.647;28622.555
751.344;23119.178;   -7.147;28405.732
751.915;23939.838;   -9.757;28461.551
752.486;22767.104;  -12.427;27842.850
753.057;20391.100;  -12.227;27845.008
753.628;19501.594;  -10.417;27728.107
754.199;20306.314;  -11.767;27381.086
754.770;21255.252;  -11.187;25882.203
755.341;21401.088;  -10.507;25886.184
755.912;21395.539;   -9.387;26050.861
756.483;20778.605;  -10.647;26798.779
757.054;19047.729;  -11.837;27048.238
757.625;17897.441;  -12.716;26294.838
758.195;17559.725;   -9.666;26142.076
758.766;17273.238;   -8.656;26392.234
759.337;18270.221;  -12.856;26334.594
759.907;19969.822;  -13.366;27579.652
760.478;21018.508;   -8.576;28352.770
761.048;21090.514;  -10.526;27325.088
761.619;20634.086;  -11.116;26460.428
762.189;20098.908;  -12.136;26029.826
762.760;20454.143;   -9.456;26430.145
763.330;21339.898;   -7.136;26670.902
763.900;20458.572;  -11.786;26603.021
764.471;17538.594;  -11.546;25542.740
765.041;16622.137;   -8.096;24358.459
765.611;17373.893;   -8.876;23991.297
766.181;17955.816;  -12.196;24470.236
766.751;18727.234;  -11.636;24845.975
767.321;18538.387;  -10.156;24533.633
767.891;16337.247;  -11.766;24916.492
768.461;15487.395;  -14.936;24776.771
769.031;15811.892;  -12.356;24757.988
769.601;17579.475;   -7.526;24181.088
770.171;17774.086;  -10.766;23670.387
770.741;17145.342;  -13.176;22960.045
771.311;17174.738;  -10.616;22917.523
771.880;17194.406;   -9.576;23562.941
772.450;16843.252;  -10.336;24216.500
773.020;16922.379;  -13.516;24140.398
773.589;16661.814;  -13.466;24414.857
774.159;16448.656;   -8.686;23858.717
774.729;16126.554;   -9.476;22942.135
775.298;15336.315;  -13.666;22324.033
775.867;14797.780;  -11.716;21140.313
776.437;14896.551;   -9.906;20838.092
777.006;14751.212;  -12.166;20599.510
777.576;14745.758;  -12.356;20508.809
778.145;14942.623;  -11.646;20732.947
778.714;14599.743;   -8.226;21062.465
779.283;13474.109;   -9.556;20949.664
779.853;13302.245;  -14.116;20508.623
780.422;13765.999;  -11.506;20649.082
780.991;13165.350;   -9.556;21527.520
781.560;12333.121;   -9.095;22632.658
782.129;12365.272;  -12.135;23048.277
782.698;12202.192;  -10.865;23438.555
783.267;11833.003;   -9.335;23267.734
783.836;11807.575;  -11.045;22415.133
784.404;12538.321;  -13.865;20443.152
784.973;12488.794;  -13.095;19699.150
785.542;12199.259;  -11.575;19763.828
786.111;12204.906;   -9.705;20341.408
786.679;12028.107;  -12.105;20207.967
787.248;11906.865;  -12.455;19516.465
787.817;11422.465;  -11.535;18900.363
788.385;10871.900;   -9.765;17879.121
788.954;10223.772;  -14.005;17658.301
789.522;10058.566;  -11.955;17788.879
790.090;10807.483;  -10.135;18118.277
790.659;11163.441;  -10.975;18338.736
791.227;10615.459;  -13.375;18508.615
791.795;11041.488;  -12.375;17898.254
792.364;11423.666;  -10.725;17295.133
792.932;11641.168;   -9.715;16822.051
793.500;11624.941;  -12.675;17040.148
794.068;11799.708;  -13.495;17179.787
794.636;11957.274;  -10.885;16664.246
795.204;11522.872;  -11.045;16524.545
795.772;11282.410;  -13.175;17274.564
796.340;10732.125;  -12.445;17891.002
796.908;10576.108;   -9.735;17648.561
797.476;10456.495;   -9.815;17064.080
798.044; 9902.233;  -13.985;16672.777
798.612; 9126.190;  -13.115;17023.996
799.180; 8947.954;  -10.185;16561.615
799.747; 8967.387;   -9.055;15962.773
800.315; 8738.381;  -12.385;15296.992
800.883; 8410.894;  -15.035;14801.771
801.450; 8309.150;  -10.365;14534.430
802.018; 8299.755;   -9.855;14173.248
802.585; 8311.391;  -11.905;14029.547
803.153; 8367.218;  -11.585;13836.846
803.720; 8318.725;   -9.095;13567.324
804.287; 7962.941;   -9.135;13360.622
804.855; 7532.495;  -11.604;13681.981
805.422; 7403.949;  -11.794;13536.560
805.989; 7298.624;  -10.734;13355.958
806.556; 7473.588;  -10.444;13747.896
807.124; 7932.267;  -12.764;13987.376
807.691; 8002.869;  -12.964;14038.674
808.258; 7840.478;  -11.134;14120.152
808.825; 7504.577;   -9.854;13860.111
809.392; 7443.493;  -10.504;13268.790
809.959; 6997.234;  -13.054;12680.389
810.526; 6642.169;   -8.294;12427.308
811.093; 6736.288;   -8.394;12030.105
811.659; 7389.467;  -12.304;11653.664
812.226; 7822.366;  -13.944;11637.183
812.793; 7465.155;  -10.484;11611.521
813.360; 6838.463;  -10.144;11885.181
813.926; 6366.869;  -11.684;12770.539
814.493; 6093.764;  -13.644;12677.638
815.060; 5699.186;   -9.724;11974.336
815.626; 5707.575;   -9.854;11594.715
816.193; 6151.680;  -13.254;11579.474
816.759; 6312.420;  -13.204;11666.972
817.325; 6575.427;   -9.434;11325.530
817.892; 6944.679;  -10.134;11105.369
818.458; 7310.717;  -13.474;10843.928
819.024; 6979.583;  -11.854;10714.406
819.591; 6658.748;  -10.244;10469.165
820.157; 6398.448;  -10.704;10235.523
820.723; 6025.293;  -12.324;10847.563
821.289; 5837.664;   -9.444;11040.980
821.855; 5809.140;   -8.374;10357.100
822.421; 5898.788;  -10.234; 9978.918
822.987; 5813.809;  -13.294; 9754.177
823.553; 5472.178;  -10.884;10065.755
824.119; 5366.960;   -8.884;10036.294
824.685; 5488.400;   -6.784;10029.192
825.251; 5522.049;  -12.004;10199.230
825.816; 5431.654;  -11.474; 9820.189
826.382; 5327.146;   -9.174; 9297.248
826.948; 5621.733;   -9.214; 9381.347
827.513; 6021.413;  -10.774; 9450.726
828.079; 5821.918;  -11.924; 9472.444
828.645; 5291.365;  -10.543; 9292.643
829.210; 5248.671;  -10.533; 9065.341
829.776; 5208.447;  -10.753; 9132.620
830.341; 5121.941;  -10.173; 9092.878
830.906; 5328.200;  -10.743; 9078.557
831.472; 5667.773;  -11.113; 8534.535
832.037; 5469.302;  -10.603; 8677.874
832.602; 4963.986;  -13.323; 8628.692
833.167; 4600.808;  -10.823; 8879.031
833.733; 4560.178;  -10.113; 9189.790
834.298; 4682.035;  -13.583; 9052.608
834.863; 4648.187;  -12.703; 8895.087
835.428; 4672.135;  -10.523; 8824.266
835.993; 4769.760;   -6.963; 8845.385
836.558; 4720.367;  -10.763; 8888.563
837.123; 4787.834;   -9.903; 8966.582
837.688; 4909.626;   -9.913; 8617.860
838.253; 5054.001;  -10.283; 8590.699
838.817; 5234.331;  -12.963; 8443.797
839.382; 5213.113;  -14.243; 8799.356
839.947; 4971.098;  -10.733; 8810.595
840.511; 4686.512;   -9.383; 8796.394
841.076; 4297.091;  -12.563; 8347.231
841.641; 4281.554;  -12.953; 8224.330
842.205; 4312.097;   -7.043; 8223.349
842.770; 4475.011;   -8.163; 8622.107
843.334; 4844.412;  -12.503; 8410.386
843.898; 4837.528;  -11.693; 8337.465
844.463; 4761.067;  -10.203; 8506.283
845.027; 4439.387;   -9.533; 8280.962
845.591; 4250.640;  -13.443; 8231.141
846.156; 4280.215;  -13.143; 7969.179
846.720; 4146.413;   -9.433; 7768.278
847.284; 4009.772;  -11.033; 7630.957
847.848; 3784.844;  -10.403; 7472.395
848.412; 3619.912;  -11.553; 7437.394
848.976; 3649.416;   -8.393; 7674.592
849.540; 3580.443;   -8.713; 7836.011
850.104; 3652.095;  -12.463; 7913.669
850.668; 3951.599;  -12.973; 7694.508
851.232; 4029.107;  -10.793; 7756.887
851.796; 3848.362;  -10.662; 7926.545
852.359; 3538.569;  -13.082; 7827.844
852.923; 3408.112;  -12.192; 7641.163
853.487; 3262.373;  -11.912; 7342.501
854.050; 3221.531;  -10.892; 7042.820
854.614; 3388.257;  -13.992; 7151.338
855.177; 3530.884;  -11.732; 7105.077
855.741; 3553.146;   -8.962; 6989.675
856.304; 3369.926;   -9.442; 6596.634
856.868; 3312.740;  -14.192; 6356.272
857.431; 3466.527;  -12.702; 6468.571
857.995; 3560.556;   -9.942; 6373.210
858.558; 3574.926;   -9.112; 6324.448
859.121; 3302.305;  -12.932; 6408.327
859.684; 3169.702;  -13.442; 6347.886
860.247; 3253.461;  -10.632; 6321.264
860.810; 3192.226;  -11.272; 6301.903
861.374; 2881.742;   -9.832; 6607.881
861.937; 2605.004;  -11.762; 6408.200
862.500; 2567.272;   -9.722; 6572.639
863.062; 2681.623;  -10.512; 6387.297
863.625; 2806.979;  -11.232; 6190.836
864.188; 2945.498;  -14.112; 5807.254
864.751; 3021.641;  -11.302; 5682.413
865.314; 2923.498;  -10.112; 5547.492
865.876; 2775.909;  -12.182; 5500.150
866.439; 2783.961;  -10.722; 5415.909
867.002; 2677.306;   -9.252; 5501.567
867.564; 2442.489;   -9.572; 5413.946
868.127; 2244.766;  -13.142; 5160.325
868.689; 2214.355;  -12.902; 5133.183
869.252; 2180.050;   -9.732; 5252.382
869.814; 2086.562;   -9.432; 5297.141
870.377; 2074.892;  -11.552; 5390.919
870.939; 2154.126;   -9.052; 5599.898
871.501; 2210.084;  -10.982; 5248.336
872.063; 2233.580;  -12.292; 4854.235
872.626; 2213.410;  -14.912; 4817.074
873.188; 2177.304;  -13.112; 4987.732
873.750; 2106.786;  -13.442; 4868.651
874.312; 2022.867;   -9.402; 4779.330
874.874; 1958.115;  -11.062; 4866.348
875.436; 1907.388;  -13.931; 4718.887
875.998; 1889.008;   -9.561; 4660.005
876.560; 1857.770;  -11.321; 4462.964
877.122; 1788.145;  -12.221; 4145.042
877.683; 1698.336;  -12.191; 4056.481
878.245; 1638.904;  -12.101; 3950.740
878.807; 1678.591;   -8.971; 4058.958
879.369; 1680.576;  -12.071; 3954.677
879.930; 1576.028;  -14.621; 3941.495
880.492; 1529.000;  -10.311; 4067.014
881.053; 1500.188;  -10.901; 3859.633
881.615; 1400.715;  -14.411; 3776.071
882.176; 1346.286;  -13.761; 3734.750
882.738; 1347.885;   -9.181; 3678.489
883.299; 1348.227;  -11.791; 3405.407
883.860; 1352.839;  -13.121; 3351.106
884.422; 1348.764;  -11.211; 3394.044
884.983; 1298.732;  -10.091; 3166.443
885.544; 1198.748;   -8.461; 3189.802
886.105; 1130.873;  -12.361; 3160.360
886.666; 1084.227;  -14.141; 3093.059
887.227; 1032.391;  -11.361; 2941.957
887.788;  951.102;  -11.401; 2974.836
888.349;  876.943;  -13.791; 2721.214
888.910;  884.040;  -13.191; 2696.493
889.471;  899.026;   -9.881; 2560.172
890.032;  870.204;   -9.881; 2558.190
890.593;  836.029;  -10.371; 2567.669
891.153;  814.551;  -13.301; 2460.307
891.714;  769.411;  -11.431; 2372.046
892.275;  732.333;  -11.291; 2309.505
892.835;  694.141;  -11.471; 2382.543
893.396;  642.313;  -11.541; 2295.502
893.956;  588.370;  -11.181; 2162.420
894.517;  550.367;  -11.741; 2125.439
895.077;  546.848;  -11.671; 2086.978
895.638;  549.120;  -11.311; 2126.316
896.198;  519.720;   -9.831; 1838.275
896.758;  470.508;   -8.421; 1892.813
897.319;  435.520;  -12.351; 1792.232
897.879;  423.324;  -13.511; 1762.751
898.439;  399.139;  -12.001; 1661.149
898.999;  370.153;  -10.180; 1781.468
899.559;  358.562;  -12.030; 1703.347
900.119;  355.451;  -15.710; 1537.525
900.679;  352.272;   -8.900; 1638.384
901.239;  338.433;   -8.340; 1527.902
901.799;  327.788;  -13.910; 1456.441
902.359;  319.572;  -13.460; 1357.140
902.919;  307.414;  -11.490; 1331.118
903.479;  291.445;  -12.110; 1317.257
904.038;  268.573;  -11.720; 1262.595
904.598;  253.057;  -13.610; 1152.034
905.158;  248.139;  -11.040; 1240.893
905.717;  239.871;  -10.900; 1233.691
906.277;  227.653;  -15.080; 1217.330
906.836;  218.175;  -13.380; 1222.408
907.396;  209.584;  -10.780; 1193.047
907.955;  202.655;   -8.500; 1182.526
908.515;  197.188;  -12.760; 1099.364
909.074;  190.678;  -11.900; 1092.863
909.633;  184.103;   -8.950; 1069.121
910.192;  179.965;   -8.770; 1196.460
910.752;  175.092;  -12.390; 1029.960
911.311;  171.549;  -13.680; 1009.780
911.870;  168.665;  -12.370;  971.460
912.429;  168.414;  -10.900; 1094.080
912.988;  166.124;  -11.690; 1081.060
913.547;  161.632;  -13.240;  940.380
914.106;  156.480;  -11.990;  999.420
914.665;  151.937;   -9.990;  984.020
915.224;  152.465;  -12.880; 1035.760
915.782;  151.758;  -12.350;  922.560
916.341;  150.842;   -9.110; 1049.840
916.900;  147.136;   -9.270;  925.260
917.458;  145.829;  -13.240;  884.220
918.017;  146.262;  -13.550;  942.600
918.576;  144.869;  -12.320;  904.440
919.134;  142.032;  -11.490;  837.980
919.693;  139.782;  -13.670;  893.060
920.251;  138.625;  -15.470;  876.500
920.809;  135.918;  -11.290;  839.580
921.368;  136.707;  -10.210;  885.360
921.926;  135.374;  -12.140;  842.940
922.484;  135.472;  -13.080;  903.360
923.042;  134.079;  -11.720;  880.340
923.601;  136.926;   -7.480;  998.680
924.159;  135.590;  -11.570;  935.560
924.717;  131.556;  -13.840;  841.080
925.275;  131.723;  -10.640;  903.240
925.833;  131.719;  -11.540;  779.320
926.391;  132.130;  -12.960;  938.380
926.949;  129.851;  -14.130;  857.680
927.506;  129.837;  -11.750;  903.500
928.064;  131.494;  -10.250;  877.580
928.622;  130.639;  -13.030;  880.100
929.180;  130.313;  -13.400;  814.180
929.737;  131.113;  -10.700;  808.540
930.295;  134.288;  -10.070;  928.480
930.853;  136.393;  -11.960;  849.100
931.410;  137.575;  -13.120;  821.120
931.968;  137.616;  -10.770;  940.660
932.525;  136.436;  -10.680;  909.380
933.082;  136.610;  -13.130;  811.440
933.640;  136.595;  -13.210;  925.900
934.197;  135.245;  -11.060;  886.360
934.754;  136.400;   -9.580;  897.780
935.312;  139.690;  -14.000;  863.340
935.869;  143.934;  -10.710; 1012.980
936.426;  144.054;   -9.860;  872.800
936.983;  144.243;   -9.710;  889.020
937.540;  143.261;  -13.990;  838.280
938.097;  141.685;  -14.040;  940.120
938.654;  143.556;  -10.310;  898.860
939.211;  146.286;  -10.560;  952.480
939.768;  149.826;  -13.900;  915.420
940.324;  153.646;  -14.760;  904.200
940.881;  154.338;  -10.370;  878.500
941.438;  155.434;   -8.260; 1021.200
941.995;  151.821;  -12.540;  992.560
942.551;  148.409;  -14.670;  875.620
943.108;  148.482;  -10.450;  937.920
943.664;  151.430;  -10.750;  869.340
944.221;  153.978;  -11.550; 1088.140
944.777;  152.939;  -14.770;  869.680
945.334;  155.791;  -12.820;  884.840
945.890;  157.627;  -10.130;  946.480
946.446;  157.545;  -13.470;  947.020
947.003;  159.364;  -12.120;  964.940
947.559;  160.219;   -9.980; 1063.040
948.115;  158.943;   -9.080; 1026.540
948.671;  156.042;  -10.830;  967.300
949.227;  154.115;  -12.440;  859.560
949.783;  150.273;  -12.910;  858.900
950.339;  153.279;  -10.270;  991.000
950.895;  153.501;  -13.630; 1023.840
951.451;  153.749;  -15.100;  925.280
952.007;  155.355;  -11.330;  998.540
952.563;  157.216;  -10.580;  937.780
953.118;  156.736;  -13.440;  904.940
953.674;  155.934;  -12.710;  935.780
954.230;  155.521;  -10.350;  949.640
954.785;  155.051;   -9.190;  936.640
955.341;  153.106;  -11.200;  998.160
955.897;  151.355;  -16.560;  834.660
956.452;  151.541;  -12.570;  953.840
957.008;  149.785;   -7.970; 1083.640
957.563;  147.455;  -11.940; 1009.540
958.118;  143.313;  -13.450;  877.700
958.674;  143.826;  -12.030;  946.780
959.229;  145.913;   -9.410; 1013.980
959.784;  143.522;  -12.000;  832.400
960.339;  141.462;  -14.780; 1001.280
960.894;  136.492;   -9.860;  963.760
961.449;  132.922;   -9.970;  859.960
962.004;  134.418;  -10.900; 1212.840
962.559;  130.303;  -13.150;  860.140
963.114;  127.934;  -13.740;  742.480
963.669;  125.714;   -9.820;  915.500
964.224;  123.490;  -13.890;  874.340
964.779;  123.443;  -12.600;  828.420
965.334;  125.819;  -10.950; 1017.860
965.888;  127.465;  -11.170;  875.360
966.443;  130.667;  -12.540;  972.380
966.998;  127.027;  -15.780;  819.460
967.552;  118.952;   -9.760;  908.380
968.107;  106.128;   -9.060;  868.300
968.661;   96.754;  -11.950;  922.440
969.216;   90.199;  -12.800;  856.280
969.770;   89.258;  -11.210;  917.200
970.324;   91.504;  -11.610;  923.140
970.879;   93.437;  -11.370;  947.180
971.433;   95.296;  -12.540;  952.720
971.987;   92.941;  -11.320;  895.340
972.541;   91.976;  -10.720;  917.100
973.095;   92.523;   -9.680; 1009.460
973.649;   92.554;  -11.440;  809.480
974.203;   93.386;  -11.210;  829.040
974.757;   94.271;  -10.240;  855.220
975.311;   95.824;  -13.720;  872.600
975.865;   95.094;  -13.770;  881.820
976.419;   93.179;  -11.690;  857.400
976.973;   93.053;   -9.510;  849.620
977.526;   96.361;  -12.620;  949.920
978.080;   95.431;  -12.010;  796.780
978.634;   97.222;  -10.170;  921.320
979.187;   94.578;   -9.020;  905.400
979.741;   93.295;   -9.820; 1018.380
980.294;   89.059;  -14.870;  789.160
980.848;   87.689;  -12.380;  717.220
981.401;   88.177;  -10.350;  816.540
981.955;   91.486;  -13.720;  844.300
982.508;   90.452;  -11.490;  746.340
983.061;   91.166;  -10.000;  915.260
983.615;   88.166;  -11.480;  798.800
984.168;   84.873;  -13.220;  770.080
984.721;   84.891;  -13.960;  880.760
985.274;   82.895;  -10.870;  867.500
985.827;   82.169;   -9.790;  834.220
986.380;   80.124;  -13.120;  721.340
986.933;   78.762;  -12.450;  864.800
987.486;   77.082;  -10.210;  861.920
988.039;   76.520;   -8.430;  863.100
988.591;   74.972;  -10.520;  893.260
989.144;   71.859;  -14.860;  737.260
989.697;   71.611;  -13.080;  758.740
990.250;   73.266;  -10.150;  858.100
990.802;   72.289;  -13.430;  755.860
991.355;   73.205;  -12.750;  974.880
991.907;   70.402;  -12.040;  864.320
992.460;   67.599;  -11.330;  753.760
993.012;   67.479;  -13.610;  749.540
993.565;   66.144;  -13.460;  711.360
994.117;   68.197;   -9.360;  950.780
994.669;   64.583;  -11.300;  701.320
995.221;   62.531;  -13.540;  791.920
995.774;   61.276;  -13.430;  787.580
996.326;   58.437;  -12.520;  740.220
996.878;   58.845;  -10.950;  838.420
997.430;   56.915;  -14.300;  699.860
997.982;   55.424;  -13.760;  750.140
998.534;   55.045;  -11.530;  739.060
999.086;   54.727;  -10.310;  738.220
999.638;   52.689;  -12.530;  661.380
1000.190;   52.912;  -11.840;  699.320
1000.741;   51.300;  -10.260;  742.700
1001.293;   51.675;   -8.860;  686.020
1001.845;   50.427;  -13.700;  676.640
1002.396;   50.952;  -12.100;  743.400
1002.948;   49.464;  -12.760;  737.400
1003.500;   47.116;  -10.380;  723.780
1004.051;   47.810;  -11.900;  907.580
1004.603;   44.776;  -12.250;  791.820
1005.154;   42.012;  -13.210;  608.980
1005.705;   40.624;  -10.950;  723.960
1006.257;   40.306;  -13.880;  707.220
1006.808;   40.624;  -12.840;  685.460
1007.359;   40.215;  -10.570;  763.240
1007.910;   39.125;   -9.620;  646.640
1008.461;   38.622;  -13.630;  732.940
1009.013;   37.566;  -17.200;  588.340
1009.564;   38.901;  -10.200;  793.520
1010.115;   37.019;  -12.570;  597.040
1010.665;   36.494;  -15.150;  602.160
1011.216;   36.418;  -14.480;  667.920
1011.767;   35.773;  -11.340;  697.920
1012.318;   36.627;   -9.780;  736.980
1012.869;   35.597;  -12.380;  679.000
1013.419;   35.360;  -15.560;  603.120
1013.970;   34.951;  -11.010;  666.640
1014.521;   34.398;  -11.610;  620.620
1015.071;   34.383;  -13.450;  670.380
1015.622;   34.629;  -13.870;  635.460
1016.172;   33.270;  -11.610;  596.820
1016.723;   32.780;  -12.120;  614.380
1017.273;   32.878;  -13.620;  604.160
1017.823;   32.698;  -14.140;  650.340
1018.374;   32.686;  -12.800;  611.760
1018.924;   32.918;  -12.340;  716.880
1019.474;   32.367;  -11.410;  718.880
1020.024;   31.613;  -14.770;  657.580
1020.574;   32.416;   -9.780;  726.160
1021.124;   32.109;   -8.560;  673.580
1021.674;   30.606;  -15.190;  559.120
1022.224;   31.565;  -13.530;  708.940
1022.774;   31.306;  -13.280;  668.820
1023.324;   31.305;  -10.690;  753.520
1023.874;   33.270;  -10.240;  875.760
1024.423;   30.707;  -12.540;  613.700
1024.973;   29.445;  -10.010;  610.760
1025.523;   29.001;  -10.550;  620.960
1026.072;   29.786;  -13.560;  606.420
1026.622;   29.709;  -15.120;  675.740
1027.172;   29.577;  -11.260;  715.660
1027.721;   28.830;  -11.410;  601.220
1028.270;   29.626;  -13.530;  663.400
1028.820;   29.813;  -13.680;  638.080
1029.369;   28.229;  -13.520;  612.700
1029.918;   28.726;  -10.980;  649.840
1030.468;   28.192;  -13.530;  564.780
1031.017;   28.346;  -13.170;  634.800
1031.566;   27.683;  -12.200;  608.900
1032.115;   27.767;   -9.960;  694.500
1032.664;   27.026;  -13.210;  596.480
1033.213;   28.070;  -12.500;  735.420
1033.762;   26.651;  -11.910;  635.620
1034.311;   26.327;   -9.640;  677.220
1034.860;   27.513;  -13.310;  691.000
1035.408;   26.563;  -11.830;  722.720
1035.957;   26.711;  -12.000;  719.540
1036.506;   25.395;  -11.690;  530.800
1037.055;   27.776;  -10.990;  844.320
1037.603;   25.695;  -15.120;  664.000
1038.152;   23.949;  -12.450;  534.760
1038.700;   25.456;  -10.560;  585.740
1039.249;   25.008;  -11.080;  681.220
1039.797;   24.668;  -12.540;  633.360
1040.345;   24.751;  -11.920;  705.420
1040.894;   24.718;  -11.410;  625.300
1041.442;   23.999;  -14.320;  632.200
1041.990;   23.414;  -16.240;  559.160
1042.538;   22.891;  -11.680;  536.180
1043.087;   22.533;  -10.760;  570.860
1043.635;   24.607;  -11.850;  670.500
1044.183;   23.421;  -15.480;  586.400
1044.731;   22.764;  -11.770;  576.000
1045.279;   22.903;  -13.090;  674.920
1045.827;   24.702;  -12.440;  892.400
1046.374;   21.655;  -13.840;  515.420
1046.922;   21.637;  -13.220;  590.580
1047.470;   23.044;  -10.230;  691.300
1048.018;   22.240;  -14.590;  647.960
1048.565;   23.732;  -12.050;  708.600
1049.113;   21.917;  -11.650;  557.000
1049.660;   21.428;  -10.510;  629.660
1050.208;   21.908;  -13.310;  675.640
1050.755;   20.702;  -15.900;  606.580
1051.303;   22.051;  -11.430;  686.820
1051.850;   21.129;   -8.480;  635.120
1052.397;   19.611;  -15.010;  473.960
1052.945;   20.202;  -13.960;  617.760
1053.492;   21.607;  -13.150;  741.840
1054.039;   21.259;   -9.630;  720.180
1054.586;   20.537;  -13.680;  557.240
1055.133;   21.280;  -14.570;  693.140
1055.680;   21.131;  -13.820;  646.620
1056.227;   20.058;  -11.730;  542.780
1056.774;   21.309;  -12.480;  794.980
1057.321;   19.352;  -13.930;  523.260
1057.868;   19.065;  -11.690;  651.320
1058.415;   19.623;   -9.520;  651.980
1058.961;   20.272;  -13.160;  678.940
1059.508;   19.332;  -12.920;  643.820
1060.055;   18.899;  -11.920;  581.780
1060.601;   19.291;  -11.500;  624.300
1061.148;   19.507;  -14.330;  616.820
1061.694;   18.384;  -16.870;  592.580
1062.241;   19.136;  -10.330;  596.320
1062.787;   18.897;  -10.620;  663.140
1063.334;   20.823;  -10.110;  808.560
1063.880;   17.921;  -13.400;  668.360
1064.426;   18.383;  -10.680;  706.820
1064.972;   17.187;   -9.920;  601.340
1065.518;   16.684;  -10.980;  566.640
1066.065;   18.184;  -14.890;  624.460
1066.611;   16.363;  -12.870;  598.800
1067.157;   17.891;  -12.950;  641.860
1067.703;   17.702;  -13.540;  668.480
1068.249;   17.165;  -13.540;  605.220
1068.794;   16.451;  -12.600;  626.880
1069.340;   15.755;  -10.620;  578.960
1069.886;   16.595;  -12.830;  590.700
1070.432;   15.928;  -14.870;  541.720
1070.977;   15.952;  -11.980;  601.080
1071.523;   15.893;   -8.200;  573.060
1072.068;   15.702;  -12.330;  582.000
1072.614;   15.237;  -16.370;  527.760
1073.160;   16.459;  -11.100;  687.040
1073.705;   15.711;  -10.480;  572.520
1074.250;   15.333;  -14.520;  559.900
1074.796;   16.702;  -11.460;  655.160
1075.341;   16.069;  -11.950;  664.100
1075.886;   14.947;  -11.460;  594.240
1076.431;   14.734;  -13.770;  649.880
1076.976;   14.198;  -12.680;  639.220
1077.521;   14.085;  -13.170;  583.080
1078.067;   14.051;  -10.860;  579.400
1078.612;   14.828;  -13.920;  661.620
1079.156;   14.999;  -13.880;  601.540
1079.701;   14.272;  -13.120;  693.260
1080.246;   15.236;   -9.940;  696.300
1080.791;   15.024;  -14.740;  625.020
1081.336;   14.705;  -13.750;  659.320
1081.880;   14.474;  -13.400;  649.680
1082.425;   13.233;  -12.220;  573.480
1082.970;   14.687;  -11.610;  717.040
1083.514;   13.366;  -13.580;  597.000
1084.059;   12.534;  -12.810;  586.720
1084.603;   12.949;  -12.320;  565.840
1085.147;   12.900;  -13.190;  645.220
1085.692;   14.543;  -12.480;  716.800
1086.236;   11.952;  -13.020;  503.140
1086.780;   14.039;   -9.190;  751.440
1087.325;   13.442;  -12.480;  654.620
1087.869;   12.936;  -12.450;  610.700
1088.413;   12.800;  -12.240;  705.040
1088.957;   11.153;   -9.020;  543.400
1089.501;   13.386;  -10.320;  766.640
1090.045;   12.435;  -12.720;  726.480
1090.589;   10.420;  -13.690;  569.920
1091.133;   11.932;  -10.020;  673.340
1091.676;   12.135;  -12.330;  591.940
1092.220;   11.844;  -14.970;  600.920
1092.764;   12.569;  -12.430;  706.960
1093.307;   12.239;   -9.800;  673.780
1093.851;   10.832;  -14.970;  556.540
1094.395;   11.485;  -15.310;  683.140
1094.938;   10.844;  -10.370;  632.520
1095.482;   10.884;  -11.050;  559.800
1096.025;   11.441;  -11.840;  710.880
1096.568;   12.272;  -12.840;  779.280
1097.112;    9.410;  -14.700;  508.180
1097.655;   11.177;   -8.720;  603.000
1098.198;    9.649;  -13.610;  600.180
1098.741;   10.263;  -13.350;  612.860
1099.285;   11.445;  -11.230;  657.300
1099.828;    8.282;  -11.840;  439.400
1100.371;    9.679;  -10.840;  608.160
1100.914;   10.213;  -14.190;  682.660
1101.457;    9.866;  -11.240;  679.900
1101.999;    9.267;  -11.270;  584.680
1102.542;    9.083;  -11.480;  641.440
1103.085;    9.528;  -11.750;  658.500
1103.628;   10.190;  -11.400;  762.060
1104.170;    9.306;  -10.490;  588.280
1104.713;    9.735;  -10.600;  646.700
1105.256;    8.576;  -14.360;  557.440
1105.798;    7.794;  -13.210;  499.980
1106.341;    8.906;  -10.270;  728.900
1106.883;    8.303;  -12.200;  521.340
1107.425;    8.778;  -13.110;  668.180
1107.968;    8.566;  -12.840;  612.380
1108.510;    8.980;   -6.480;  684.960
1109.052;    7.696;  -13.940;  612.620
1109.594;    7.870;  -13.690;  554.440
1110.136;    8.777;  -11.880;  643.220
1110.679;    7.371;   -9.500;  633.080
1111.221;    7.948;  -14.160;  604.460
1111.763;    7.619;  -13.980;  559.220
1112.304;    6.804;  -13.880;  547.140
1112.846;    7.672;  -12.210;  666.240
1113.388;   10.544;  -11.390;  942.180
1113.930;    8.110;  -14.540;  694.200
1114.472;    6.536;  -12.640;  606.540
1115.013;    5.680;  -11.620;  551.280
1115.555;    6.559;  -13.640;  587.100
1116.097;    5.943;  -15.380;  579.480
1116.638;    7.067;  -12.640;  684.600
1117.180;    7.194;   -9.850;  667.740
1117.721;    7.656;  -13.690;  568.580
1118.262;    7.341;  -12.680;  677.960
1118.804;    7.465;  -12.530;  637.340
1119.345;    5.572;  -11.690;  578.400
1119.886;    7.414;  -13.380;  704.040
1120.427;    5.671;  -14.070;  589.020
1120.969;    5.388;  -13.500;  597.920
1121.510;    4.684;  -11.480;  563.060
1122.051;    5.603;  -12.830;  723.580
1122.592;    5.675;  -14.290;  655.420
1123.133;    4.240;  -12.400;  547.940
1123.673;    6.582;  -10.130;  706.480
1124.214;    5.853;  -12.930;  612.460
1124.755;    6.090;  -14.380;  639.460
1125.296;    5.735;  -14.000;  627.320
1125.836;    6.312;  -10.070;  691.500
1126.377;    4.684;  -12.640;  599.660
1126.918;    5.466;  -12.960;  614.980
1127.458;    4.797;  -13.350;  622.220
1127.999;    4.521;  -10.750;  656.980
1128.539;    4.405;  -12.350;  694.240
1129.079;    4.643;  -14.860;  632.720
1129.620;    3.963;  -13.840;  558.100
1130.160;    3.690;  -12.330;  539.480
1130.700;    5.023;  -14.530;  640.840
1131.240;    4.868;  -12.530;  643.700
1131.781;    4.141;  -14.450;  619.680
1132.321;    4.386;   -9.790;  599.120
1132.861;    3.458;  -14.860;  564.200
1133.401;    3.782;  -14.290;  593.940
1133.941;    4.296;  -11.750;  626.280
1134.481;    3.547;   -9.920;  597.580
1135.020;    3.868;  -12.290;  609.160
1135.560;    4.147;  -11.650;  674.940
1136.100;    2.672;  -16.270;  501.160
1136.640;    2.334;  -10.890;  510.480
1137.179;    3.041;  -14.180;  537.960
1137.719;    3.855;  -16.250;  605.400
1138.258;    2.990;  -14.230;  587.360
1138.798;    3.183;   -9.090;  663.780
1139.337;    1.775;  -15.130;  482.840
1139.877;    3.755;  -13.680;  642.360
1140.416;    4.639;  -11.320;  878.060
1140.955;    2.072;  -10.860;  535.380
1141.494;    2.770;  -12.920;  669.280
1142.034;    2.917;  -13.930;  583.520
1142.573;    3.128;  -11.440;  646.280
1143.112;    1.755;  -12.000;  553.480
1143.651;    2.041;  -13.670;  536.480
1144.190;    2.997;  -12.730;  691.640
1144.729;    1.588;  -14.560;  607.420
1145.267;    2.323;  -11.830;  584.900
1145.806;    3.116;  -12.230;  637.040
1146.345;    1.811;  -14.130;  635.020
1146.884;    2.074;  -11.590;  622.500
1147.422;    1.147;  -12.550;  533.060
1147.961;    2.989;  -11.180;  708.460
1148.500;    2.180;  -11.510;  669.720
1149.038;    2.522;  -11.640;  632.500
1149.577;    2.113;  -10.130;  698.640
1150.115;    0.784;  -13.970;  452.280
1150.653;    2.246;  -14.520;  607.340
1151.192;    1.730;  -12.810;  552.920
1151.730;    1.529;   -9.100;  652.560
1152.268;    0.778;  -12.220;  589.520
1152.806;    1.323;  -14.140;  571.180
1153.344;   -0.743;  -12.350;  577.640
1153.882;    1.490;   -8.980;  600.060
1154.421;    0.056;  -15.190;  470.620
1154.958;    0.615;  -15.210;  595.240
1155.496;    1.590;  -12.850;  645.280
1156.034;    0.659;   -9.940;  721.880
1156.572;    1.647;  -13.570;  667.060
1157.110;   -0.212;  -14.590;  473.940
1157.647;    0.745;  -13.030;  676.960
1158.185;    0.195;  -12.140;  564.320
1158.723;   -0.575;  -14.390;  509.200
1159.260;    0.655;  -14.090;  701.700
1159.798;    0.326;  -11.920;  658.160
1160.335;   -0.240;  -11.110;  631.820

