
Integration time [ms]:   3.276
Averaging Nr. [scans]: 1000
Smoothing Nr. [pixels]: 0
Data measured with spectrometer [name]: 7414430SP
Wave   ;Sample   ;Dark     ;Reference
[nm]   ;[counts] ;[counts] ;[counts] 

288.544;  150.818;    7.793;  793.890
289.143;  154.388;    7.462;  681.602
289.742;  153.525;    8.602;  828.814
290.341;  139.685;    1.321;  789.841
290.940;  129.184;   -0.709;  730.702
291.538;  130.033;    0.881;  881.108
292.137;  129.715;    0.122;  792.581
292.736;  135.358;   -1.929;  975.101
293.335;  130.745;   -8.229;  735.086
293.934;  131.741;   -5.279;  781.677
294.532;  129.818;   -1.369; 1031.958
295.131;  115.136;   -7.641;  834.394
295.730;  115.701;   -8.420;  809.588
296.328;  115.446;   -5.611;  783.442
296.927;  114.834;   -5.781;  779.652
297.525;  117.036;   -6.361;  781.236
298.124;  106.743;  -11.382;  654.009
298.722;  110.747;   -7.641;  761.933
299.321;  108.294;   -6.811;  708.597
299.919;  106.776;   -6.991;  751.918
300.518;  104.395;  -10.362;  689.338
301.116;  106.043;   -9.581;  691.381
301.715;  104.726;   -4.891;  730.222
302.313;  104.365;   -8.801;  704.943
302.911;   99.453;   -8.522;  733.830
303.509;  104.755;   -6.171;  925.627
304.108;  102.243;   -7.311;  760.383
304.706;  101.998;   -8.321;  801.664
305.304;   96.488;  -10.222;  796.707
305.902;  101.590;   -6.021;  784.484
306.500;   97.600;   -4.971;  728.200
307.098;   95.788;   -7.061;  746.560
307.696;   93.369;   -8.801;  780.432
308.294;   93.587;   -6.411;  731.359
308.892;   95.996;   -2.901;  759.769
309.490;   92.675;   -5.041;  712.161
310.088;   90.652;   -5.002;  788.444
310.686;   95.125;   -2.041;  821.749
311.284;   89.976;   -2.351;  766.040
311.882;   88.890;   -4.422;  731.225
312.480;   85.701;   -4.192;  697.167
313.078;   86.945;   -1.172;  808.331
313.675;   87.857;   -2.601;  691.600
314.273;   82.332;   -1.312;  797.837
314.871;   82.253;   -3.942;  589.829
315.468;   78.940;   -2.802;  652.090
316.066;   82.173;   -0.701;  694.427
316.664;   76.157;   -4.362;  656.351
317.261;   79.565;   -2.872;  910.128
317.859;   74.385;   -2.022;  768.735
318.456;   75.783;   -0.531;  830.096
319.054;   72.256;   -3.912;  787.828
319.651;   70.418;   -4.752;  759.928
320.249;   69.021;   -2.602;  810.188
320.846;   67.185;   -0.821;  714.286
321.443;   64.049;   -4.642;  832.135
322.041;   61.494;   -5.002;  812.315
322.638;   59.945;   -3.982;  701.456
323.235;   60.979;   -3.411;  665.683
323.833;   58.068;   -7.361;  740.354
324.430;   53.020;   -8.611;  615.900
325.027;   54.612;   -4.061;  876.855
325.624;   54.296;   -4.031;  644.532
326.221;   51.407;   -7.481;  689.717
326.818;   51.117;   -5.281;  818.332
327.415;   54.096;   -7.460;  748.828
328.012;   52.868;   -5.510;  690.585
328.609;   52.481;   -7.880;  731.389
329.206;   50.206;   -8.331;  778.621
329.803;   50.071;   -5.121;  737.841
330.400;   52.571;   -4.510;  704.260
330.997;   54.740;   -6.441;  817.147
331.594;   52.235;   -8.831;  788.185
332.191;   57.798;   -7.621;  728.722
332.787;   60.750;   -4.591;  844.463
333.384;   59.776;   -7.412;  763.093
333.981;   57.966;   -8.293;  815.687
334.578;   60.500;   -7.052;  708.378
335.174;   64.060;   -3.102;  731.469
335.771;   63.985;   -5.943;  836.456
336.367;   60.541;   -7.393;  710.631
336.964;   63.759;   -4.063;  793.266
337.561;   61.792;   -3.813;  731.112
338.157;   57.300;   -4.654;  911.916
338.754;   54.489;   -7.934;  796.589
339.350;   52.972;   -4.414;  722.493
339.946;   55.146;   -4.664;  773.135
340.543;   46.687;   -6.375;  846.136
341.139;   41.885;   -9.815;  720.836
341.735;   40.100;   -4.526;  772.593
342.332;   38.390;   -4.895;  691.472
342.928;   39.432;   -4.295;  795.394
343.524;   33.095;   -5.476;  761.684
344.120;   29.335;   -5.856;  738.562
344.716;   32.561;   -2.155;  723.717
345.313;   29.878;   -6.275;  795.342
345.909;   24.856;   -8.815;  627.336
346.505;   26.468;   -5.305;  740.247
347.101;   27.470;   -2.674;  827.864
347.697;   27.735;   -4.344;  785.398
348.293;   22.492;   -9.975;  627.244
348.889;   23.553;   -5.774;  745.914
349.485;   22.731;   -5.004;  688.205
350.081;   23.200;   -4.704;  772.592
350.676;   18.041;   -6.635;  691.606
351.272;   22.409;   -4.504;  809.530
351.868;   22.071;   -3.914;  780.497
352.464;   19.154;   -9.044;  723.932
353.059;   16.206;   -8.314;  646.017
353.655;   19.254;   -7.024;  777.063
354.251;   20.350;   -5.343;  759.845
354.846;   15.245;   -8.604;  740.646
355.442;   12.507;   -6.945;  753.071
356.038;   14.759;   -7.564;  751.708
356.633;   14.134;   -5.814;  728.594
357.229;   12.613;   -7.364;  724.757
357.824;   10.317;   -8.024;  703.600
358.420;   10.520;   -9.384;  679.726
359.015;    9.508;   -5.104;  695.357
359.610;   11.445;   -6.854;  763.920
360.206;    5.690;  -10.185;  603.240
360.801;    9.246;   -7.054;  646.503
361.396;    9.796;   -5.034;  725.975
361.992;    6.189;   -8.284;  668.220
362.587;    2.997;   -8.625;  670.160
363.182;    4.536;   -7.674;  689.631
363.777;    5.487;   -5.164;  738.242
364.372;    5.607;   -8.604;  737.314
364.967;    1.643;   -9.055;  680.744
365.563;    6.505;   -6.114;  815.567
366.158;    2.767;   -5.814;  685.161
366.753;    4.258;   -7.854;  649.263
367.348;    2.075;   -7.804;  746.056
367.942;    2.177;   -7.954;  697.298
368.537;    1.378;   -4.984;  754.245
369.132;    1.405;   -8.564;  703.428
369.727;   -2.870;   -8.855;  638.079
370.322;   -1.871;   -6.245;  580.186
370.917;   -1.981;   -6.425;  710.646
371.511;    0.666;   -6.294;  861.834
372.106;   -2.543;   -7.685;  776.964
372.701;   -5.369;   -7.335;  585.988
373.296;   -0.152;   -4.564;  863.135
373.890;   -4.655;  -10.235;  647.840
374.485;   -6.880;   -7.885;  691.199
375.079;   -3.667;   -7.324;  738.685
375.674;   -1.530;   -3.494;  812.970
376.268;   -6.185;   -8.525;  691.759
376.863;  -11.390;  -10.086;  580.327
377.457;   -5.768;   -7.025;  662.490
378.052;   -7.740;   -3.585;  764.884
378.646;   -8.284;   -7.595;  741.167
379.240;   -9.079;   -8.335;  721.176
379.835;   -8.449;   -5.785;  636.978
380.429;  -10.030;   -4.335;  562.557
381.023;   -9.546;   -6.805;  779.205
381.617;  -12.153;   -9.195;  680.106
382.212;   -8.702;   -6.905;  685.303
382.806;   -7.220;   -3.745;  760.690
383.400;  -12.175;   -7.745;  672.281
383.994;  -13.365;   -9.765;  664.870
384.588;   -9.363;   -6.564;  697.701
385.182;   -7.823;   -5.344;  726.624
385.776;   -9.148;   -8.514;  706.875
386.370;  -12.968;   -9.555;  681.968
386.964;  -12.257;   -8.715;  684.155
387.558;   -9.874;   -6.174;  598.360
388.152;  -13.112;   -8.725;  681.959
388.745;  -11.390;   -7.965;  814.707
389.339;   -9.932;   -5.924;  747.642
389.933;   -9.354;   -5.524;  695.370
390.527;   -9.327;   -7.114;  859.029
391.120;  -16.693;  -10.725;  595.318
391.714;  -13.505;   -8.035;  711.633
392.308;  -10.364;   -3.574;  780.253
392.901;  -13.828;   -7.245;  642.460
393.495;  -15.461;   -9.285;  595.414
394.089;  -13.707;   -5.895;  760.452
394.682;  -14.057;   -4.295;  697.188
395.275;  -14.903;   -9.875;  719.927
395.869;  -16.015;   -8.485;  667.314
396.462;  -14.354;   -7.455;  616.609
397.056;  -10.488;   -5.424;  776.621
397.649;  -15.141;   -6.605;  731.575
398.242;  -12.860;   -8.224;  712.645
398.836;  -11.888;   -7.474;  766.408
399.429;  -13.132;   -7.094;  631.041
400.022;  -16.742;   -9.475;  665.902
400.615;  -13.409;   -7.145;  805.609
401.208;  -11.863;   -7.174;  691.451
401.802;  -14.302;   -5.515;  699.329
402.395;  -15.367;   -9.875;  683.502
402.988;  -16.324;   -8.845;  696.627
403.581;  -13.080;   -8.874;  646.878
404.174;  -11.275;   -5.324;  686.568
404.767;  -13.429;   -9.575;  638.583
405.360;  -16.527;  -10.965;  621.445
405.953;  -10.770;   -8.764;  759.034
406.545;  -11.393;   -7.514;  725.342
407.138;  -15.142;  -10.025;  618.350
407.731;  -13.443;  -10.034;  613.303
408.324;   -9.202;   -9.374;  660.554
408.917;  -10.476;   -6.534;  681.864
409.509;  -12.402;   -8.004;  740.396
410.102;  -14.159;   -9.875;  643.948
410.695;   -8.564;   -8.604;  665.758
411.287;   -9.498;   -6.794;  599.821
411.880;  -10.009;   -9.334;  585.421
412.472;  -13.867;  -10.254;  613.092
413.065;  -10.967;   -6.714;  629.408
413.657;   -9.546;   -7.234;  576.678
414.250;   -8.494;  -10.544;  646.681
414.842;  -10.226;   -9.744;  676.353
415.434;   -8.162;   -6.994;  570.463
416.027;   -4.273;   -5.893;  652.196
416.619;   -5.304;   -7.264;  713.400
417.211;   -6.666;  -10.374;  599.352
417.804;   -2.929;   -7.993;  628.499
418.396;   -7.899;   -7.234;  607.643
418.988;   -4.600;   -9.443;  659.238
419.580;   -7.983;  -10.724;  568.276
420.172;   -5.552;  -10.323;  536.196
420.764;   -2.081;   -8.793;  672.482
421.356;   -2.645;  -11.143;  636.898
421.948;   -3.471;   -8.293;  677.661
422.540;    1.335;   -7.893;  680.027
423.132;   -0.200;   -7.082;  600.641
423.724;   -2.899;   -8.653;  561.267
424.316;   -0.556;  -10.213;  621.345
424.908;    2.386;   -9.762;  591.517
425.500;    3.668;   -5.572;  647.978
426.092;    3.352;   -8.422;  648.268
426.683;    2.311;   -9.283;  684.836
427.275;    5.483;   -7.852;  641.471
427.867;    6.506;   -5.272;  668.948
428.458;    7.861;   -7.682;  732.344
429.050;    6.744;  -10.612;  680.749
429.642;    8.455;   -9.882;  743.124
430.233;    8.095;   -6.962;  569.356
430.825;   10.682;   -6.842;  724.809
431.416;    7.155;   -9.672;  698.241
432.008;   10.482;   -6.552;  651.723
432.599;   11.137;   -6.891;  656.073
433.190;    9.042;  -10.912;  637.670
433.782;    7.885;  -11.172;  590.395
434.373;   15.266;   -6.061;  884.765
434.964;   13.882;   -8.251;  602.920
435.556;   11.910;   -9.722;  634.537
436.147;   14.372;   -9.082;  758.490
436.738;   14.647;   -8.041;  701.099
437.329;   20.070;   -7.341;  721.723
437.920;   12.691;   -8.162;  666.688
438.511;   12.750;  -11.802;  564.526
439.103;   18.630;  -10.191;  623.998
439.694;   21.115;   -7.601;  681.583
440.285;   22.142;   -8.541;  764.432
440.876;   19.808;   -9.751;  845.738
441.466;   19.566;   -9.401;  575.162
442.057;   24.849;   -7.760;  665.814
442.648;   23.766;   -9.971;  746.255
443.239;   21.724;  -11.001;  620.477
443.830;   26.829;   -7.990;  704.958
444.421;   28.250;   -7.910;  655.474
445.011;   25.146;   -8.131;  693.619
445.602;   24.879;   -7.111;  743.126
446.193;   26.947;  -10.920;  488.117
446.783;   31.200;   -6.500;  640.397
447.374;   26.932;   -8.671;  692.759
447.964;   27.639;  -10.781;  713.770
448.555;   35.310;   -9.650;  822.742
449.145;   31.400;   -8.660;  662.853
449.736;   32.866;   -8.990;  803.179
450.326;   33.244;   -9.500;  713.626
450.917;   37.578;   -8.680;  675.324
451.507;   36.446;   -7.520;  600.661
452.097;   37.777;   -8.590;  746.267
452.688;   38.332;  -11.340;  742.160
453.278;   38.064;  -10.100;  566.840
453.868;   42.427;   -6.019;  793.550
454.458;   41.328;   -9.440;  651.141
455.048;   40.951;  -10.560;  711.783
455.639;   42.890;  -11.799;  567.096
456.229;   45.194;   -6.899;  710.694
456.819;   48.048;   -7.389;  751.158
457.409;   48.088;  -11.119;  773.993
457.999;   51.298;   -9.289;  737.505
458.589;   50.648;   -6.139;  686.606
459.179;   50.816;   -8.729;  717.658
459.769;   49.469;   -9.789;  627.099
460.358;   53.841;  -10.259;  797.262
460.948;   53.552;   -7.299;  689.503
461.538;   54.662;  -10.289;  660.677
462.128;   53.095;  -11.269;  664.934
462.717;   59.165;   -9.368;  710.326
463.307;   62.720;   -7.908;  705.846
463.897;   58.820;   -9.599;  656.942
464.486;   57.493;   -9.769;  837.128
465.076;   62.410;   -8.048;  733.776
465.666;   66.209;   -9.358;  652.900
466.255;   63.912;   -7.919;  785.651
466.845;   62.525;  -11.689;  666.749
467.434;   65.079;   -7.818;  725.873
468.023;   66.729;   -7.678;  658.357
468.613;   64.415;  -10.939;  713.946
469.202;   68.026;  -10.118;  646.507
469.791;   72.166;   -9.108;  737.811
470.381;   74.213;   -6.058;  742.813
470.970;   74.459;  -10.428;  711.099
471.559;   73.413;  -10.268;  733.291
472.148;   77.460;   -8.448;  675.737
472.738;   78.682;   -6.917;  765.466
473.327;   79.052;  -11.978;  637.529
473.916;   78.598;  -11.888;  737.446
474.505;   82.865;   -9.437;  751.703
475.094;   85.618;   -6.747;  806.570
475.683;   85.707;   -9.367;  797.699
476.272;   86.015;  -12.637;  730.632
476.861;   89.404;  -10.027;  706.754
477.449;   95.602;   -8.716;  728.487
478.038;   89.774;   -9.577;  692.513
478.627;   90.282;   -9.718;  714.852
479.216;   97.067;   -8.947;  769.441
479.805;  100.741;   -6.256;  783.375
480.393;  100.052;   -7.937; 1008.945
480.982;   98.825;   -7.717;  874.501
481.571;  105.088;   -9.266;  858.333
482.159;  106.359;   -7.636;  705.386
482.748;  106.118;   -9.667;  821.385
483.336;  110.598;  -10.376;  858.209
483.925;  111.069;   -7.147;  774.373
484.513;  117.208;   -7.996;  758.962
485.102;  114.447;  -10.027;  810.965
485.690;  122.321;  -10.446; 1011.050
486.278;  125.635;   -8.446;  979.329
486.867;  125.158;   -6.356;  809.662
487.455;  127.475;   -9.136;  898.229
488.043;  129.052;  -10.646;  748.361
488.631;  137.385;   -7.456; 1005.079
489.220;  141.467;   -6.636;  908.626
489.808;  141.170;  -11.036;  741.415
490.396;  149.619;  -10.246;  914.645
490.984;  154.523;   -8.556;  830.161
491.572;  164.468;   -5.886;  940.315
492.160;  170.411;   -9.486;  919.081
492.748;  181.445;  -10.976;  884.341
493.336;  204.621;   -8.776; 1019.693
493.924;  229.866;   -5.465;  958.077
494.512;  256.446;   -9.986; 1066.638
495.100;  293.431;  -10.636; 1103.280
495.687;  348.381;  -10.885; 1206.373
496.275;  409.288;   -8.126; 1150.796
496.863;  477.665;  -10.586; 1281.171
497.451;  576.458;  -11.926; 1386.805
498.038;  704.305;  -10.885; 1556.729
498.626;  807.345;   -6.315; 1741.407
499.214;  949.632;   -7.326; 2016.609
499.801; 1143.246;  -11.906; 2220.633
500.389; 1379.577;  -10.466; 2312.494
500.976; 1686.861;   -5.236; 2744.849
501.564; 2114.740;   -8.936; 3148.565
502.151; 2482.714;  -13.176; 3515.999
502.738; 2919.001;  -10.646; 3971.274
503.326; 3289.722;   -9.525; 4403.796
503.913; 3660.848;  -10.856; 5161.749
504.500; 4013.282;  -11.586; 5986.420
505.088; 4407.195;  -10.336; 6381.201
505.675; 4936.269;   -6.355; 6925.547
506.262; 5636.745;   -9.046; 7619.060
506.849; 6317.331;  -10.416; 8733.969
507.436; 6760.936;  -10.305; 9790.121
508.023; 7316.635;   -5.496; 9985.472
508.610; 7576.455;   -7.856;10434.618
509.197; 8202.209;  -10.097;11198.435
509.784; 9535.941;  -10.886;12391.194
510.371;10546.683;   -9.315;13603.713
510.958;11280.817;   -9.936;14426.586
511.545;12036.601;   -9.326;15243.775
512.132;12933.348;  -10.075;15945.876
512.719;13506.317;   -7.796;16340.369
513.305;14404.028;  -10.606;18011.766
513.892;15154.280;  -11.486;19754.971
514.479;16448.955;   -9.126;20967.805
515.066;17889.357;   -6.026;22299.793
515.652;19096.002;   -8.466;22908.660
516.239;20477.680;  -10.886;23798.875
516.825;21582.623;  -11.496;25567.275
517.412;22639.785;   -5.796;28154.959
517.998;23136.590;  -10.506;28344.111
518.585;23158.525;  -10.076;27134.219
519.171;23702.908;   -8.315;27268.576
519.758;25094.975;   -8.596;28964.129
520.344;26849.260;   -8.466;30664.494
520.930;26859.197;  -11.006;32550.605
521.516;28316.723;  -10.495;35422.895
522.103;30653.785;   -5.526;38280.004
522.689;31213.576;   -8.746;37835.117
523.275;30649.490;  -11.376;37288.613
523.861;31735.873;  -11.156;37281.395
524.447;33010.242;   -8.135;37846.949
525.033;32672.357;   -7.896;38321.949
525.619;32746.154;  -12.476;38579.285
526.205;34257.488;   -9.516;40622.875
526.791;36368.762;   -6.926;42258.836
527.377;36397.996;   -8.346;42966.902
527.963;37609.844;   -8.717;42018.949
528.549;35757.777;  -11.016;42476.828
529.135;33639.930;   -8.536;41854.852
529.721;31218.555;   -9.666;41237.711
530.306;29480.867;  -10.066;41259.445
530.892;30740.918;  -11.356;41506.047
531.478;34580.063;   -6.596;43559.613
532.063;38808.168;   -8.836;47695.563
532.649;39489.129;  -10.047;50808.324
533.235;40306.125;   -9.746;51787.500
533.820;40667.621;   -6.566;52145.035
534.406;41486.676;  -10.817;51133.488
534.991;40542.141;   -9.416;49996.805
535.576;37873.781;   -9.036;48882.852
536.162;35844.434;   -6.156;46942.285
536.747;33648.082;  -11.607;45711.746
537.333;35838.273;  -11.787;48510.180
537.918;40668.480;  -12.437;50439.891
538.503;43969.371;   -7.196;50863.711
539.088;44628.238;  -10.556;50906.922
539.673;46280.801;   -8.767;52621.965
540.259;46459.648;  -10.026;52368.094
540.844;43774.125;   -7.416;50879.109
541.429;44940.012;   -9.467;52077.777
542.014;47869.660;   -9.527;52716.695
542.599;47227.293;   -9.946;52363.281
543.184;44974.871;   -7.927;53187.137
543.769;46516.023;   -9.297;54697.605
544.354;45701.395;  -10.127;53913.914
544.938;44296.375;   -9.267;49680.164
545.523;46144.559;   -6.506;47386.277
546.108;48744.027;   -9.787;49151.949
546.693;50897.602;  -11.587;51384.637
547.278;50625.090;  -10.986;51853.254
547.862;47593.887;   -8.206;51173.750
548.447;43056.984;  -10.067;51691.395
549.031;42543.926;   -9.637;52456.703
549.616;47493.867;   -9.926;52714.516
550.201;46566.117;   -6.347;52414.598
550.785;47674.406;   -7.917;52355.059
551.370;46858.805;  -10.867;54589.453
551.954;46685.152;   -9.047;58267.348
552.538;47529.801;   -7.827;59062.176
553.123;45880.566;  -10.287;58115.285
553.707;43654.973;  -12.178;56556.285
554.291;44786.801;   -8.717;56201.668
554.876;46771.699;   -7.457;55335.762
555.460;47080.660;  -10.387;54155.703
556.044;48421.188;   -9.618;53721.484
556.628;47098.625;  -11.567;53731.016
557.212;45760.438;   -8.097;54312.531
557.796;44229.906;  -11.077;53797.773
558.380;44099.203;  -11.108;56145.984
558.964;44383.266;   -9.057;57277.930
559.548;45474.879;   -6.977;56459.641
560.132;43858.824;  -11.457;54434.543
560.716;42615.797;  -11.378;54800.617
561.300;43737.434;   -9.577;57606.945
561.884;44761.797;   -7.127;58972.445
562.467;43303.672;   -7.118;57327.570
563.051;42763.617;  -13.358;54962.434
563.635;43804.988;  -10.178;52594.473
564.219;43897.074;   -7.837;50610.410
564.802;44666.664;  -11.398;49551.180
565.386;44755.371;  -12.788;48370.953
565.969;44188.023;   -9.077;48178.871
566.553;43550.531;   -6.207;49957.305
567.136;43802.539;   -8.568;50369.594
567.720;40048.477;  -11.868;49492.004
568.303;37947.102;   -8.268;50616.352
568.887;38044.945;   -8.698;50727.148
569.470;38244.973;   -6.808;51698.379
570.053;36952.125;  -13.188;52122.078
570.637;35412.168;  -12.037;52536.438
571.220;35197.242;   -8.577;51186.098
571.803;35884.633;   -8.498;51032.762
572.386;38350.488;  -10.498;49609.887
572.969;40672.527;   -9.388;48285.926
573.552;38552.582;   -8.338;47624.285
574.135;37147.285;   -8.518;45498.641
574.718;34783.195;  -13.628;41970.434
575.301;33748.223;  -10.893;41447.137
575.884;32713.248;   -8.158;40923.836
576.467;33942.238;  -10.328;45267.723
577.050;36114.469;  -13.058;48175.543
577.633;37590.500;   -9.458;47729.328
578.216;36540.816;   -8.928;47579.793
578.799;35603.418;   -9.358;47820.996
579.381;34441.488;  -11.388;48115.551
579.964;32793.516;  -11.718;47333.766
580.547;34343.641;   -8.588;46668.969
581.129;35498.164;   -8.859;44466.141
581.712;36187.371;  -10.729;44164.922
582.294;36784.516;  -11.118;46477.855
582.877;36719.430;   -5.218;48244.254
583.459;34203.395;   -8.679;47437.895
584.042;32357.070;  -10.709;46943.219
584.624;33059.172;  -11.669;46792.227
585.206;32431.521;   -8.218;46557.250
585.789;32438.883;  -10.569;45793.773
586.371;35273.816;  -11.859;43836.391
586.953;35775.914;  -10.719;42972.492
587.536;37050.398;   -7.198;42487.211
588.118;36960.117;   -8.720;42086.414
588.700;33629.996;  -10.439;43389.930
589.282;32791.289;   -9.198;43646.039
589.864;33477.773;   -9.199;43438.109
590.446;34326.137;  -11.319;43151.926
591.028;34281.188;  -11.159;42781.867
591.610;33386.383;  -11.779;42839.098
592.192;30950.234;   -7.668;42820.402
592.774;29550.902;  -11.949;40724.277
593.356;28330.301;  -12.129;39874.789
593.937;27344.230;  -10.669;39980.648
594.519;29418.201;   -6.509;42069.633
595.101;31661.424;  -10.849;42976.031
595.683;31763.688;  -11.679;44084.441
596.264;32887.773;   -9.049;43478.797
596.846;32263.102;   -8.849;43803.672
597.427;32071.246;   -9.570;42986.934
598.009;33726.898;  -12.620;42832.219
598.591;34111.543;  -10.039;42580.086
599.172;33199.898;  -10.369;43061.805
599.753;33251.867;   -9.140;41691.469
600.335;34690.637;  -11.430;40692.520
600.916;33049.238;   -9.939;39982.422
601.498;30677.639;   -8.479;40318.617
602.079;29192.693;  -10.920;40670.609
602.660;29175.031;  -11.480;41450.898
603.241;30803.715;  -11.699;41137.738
603.823;29615.465;   -9.579;38868.797
604.404;29267.939;  -10.620;38182.785
604.985;30771.764;  -10.450;38078.047
605.566;30488.443;   -9.129;38056.633
606.147;30596.734;   -7.510;37020.418
606.728;32335.166;  -10.660;37883.359
607.309;31171.182;  -11.740;38748.273
607.890;30533.725;   -9.759;38850.230
608.471;29906.441;   -8.250;37457.918
609.051;28927.840;   -9.240;36066.457
609.632;27906.799;  -12.120;35991.074
610.213;28808.008;   -9.110;37402.641
610.794;29506.076;   -8.030;38383.363
611.374;29002.625;   -8.110;40562.387
611.955;29343.383;  -13.560;38533.727
612.536;30593.500;  -11.400;36951.789
613.116;30656.754;   -8.070;37197.891
613.697;30990.754;  -10.830;38411.125
614.277;29565.277;  -11.641;38673.938
614.858;30478.865;  -13.310;37075.863
615.438;29479.053;   -7.460;35092.906
616.019;26677.160;   -7.601;33666.301
616.599;27464.768;  -12.020;34189.023
617.179;29246.773;  -11.780;36952.047
617.760;30046.107;   -8.570;39582.574
618.340;31171.559;  -11.471;38943.977
618.920;32598.611;  -11.170;37594.156
619.500;32493.223;  -11.071;37866.938
620.080;31713.406;   -7.750;37869.043
620.660;32856.746;  -12.711;36868.617
621.241;34121.449;  -10.211;36352.309
621.821;34165.117;  -10.961;35459.520
622.401;33128.922;   -7.720;35207.414
622.980;32429.496;   -8.981;35980.422
623.560;31079.783;   -9.331;37351.328
624.140;29966.213;   -9.850;34388.582
624.720;24762.809;   -7.451;32368.764
625.300;21195.910;   -9.070;32638.629
625.880;24593.885;  -12.601;34599.035
626.459;28553.117;  -11.751;36831.738
627.039;31644.127;   -9.281;38299.098
627.619;31678.723;   -8.801;38289.574
628.198;30052.170;  -12.071;37220.695
628.778;29182.039;   -9.461;37632.563
629.357;29906.467;   -8.491;38003.012
629.937;29991.561;   -9.721;38402.039
630.516;29410.439;   -9.951;37868.801
631.096;29000.965;  -11.731;35760.410
631.675;31782.488;   -8.572;35225.219
632.254;36859.004;  -11.282;35130.289
632.834;36422.793;  -13.322;35794.570
633.413;34504.926;  -10.301;35788.922
633.992;31503.746;   -8.582;34532.863
634.571;32236.961;   -8.352;33590.113
635.151;35266.020;  -11.912;34943.863
635.730;33735.066;  -10.511;35352.523
636.309;30341.438;   -7.731;35366.605
636.888;27863.020;   -9.952;36165.637
637.467;28718.064;  -11.672;37515.902
638.046;30401.598;   -8.901;39288.695
638.625;33518.293;   -7.912;38279.699
639.204;33274.996;  -10.022;37741.598
639.782;31746.232;  -12.252;38364.551
640.361;27994.586;  -10.041;36740.621
640.940;25105.164;  -11.161;34950.082
641.519;25708.898;   -9.701;34137.398
642.097;28788.025;  -11.271;35654.258
642.676;31757.023;   -8.651;35637.957
643.255;32252.979;   -8.711;36567.074
643.833;31399.920;   -9.581;37809.434
644.412;31543.244;  -13.711;37337.293
644.990;30701.518;  -11.811;37018.531
645.569;30722.838;   -9.411;36518.469
646.147;29500.324;  -10.291;36186.430
646.726;29002.779;  -12.401;36267.688
647.304;30161.088;  -10.411;36647.625
647.882;32144.680;   -9.651;39286.742
648.461;33930.758;   -9.631;39157.703
649.039;32097.852;  -11.881;35412.883
649.617;31554.537;   -9.661;34744.918
650.195;31397.111;   -9.301;35403.098
650.773;29901.836;  -10.511;35053.797
651.352;27418.002;  -11.521;33756.816
651.930;25015.039;  -12.211;31868.773
652.508;23426.176;   -9.171;33121.551
653.086;27397.160;   -9.371;33564.793
653.663;30161.656;  -13.161;34054.668
654.241;29073.924;  -13.031;35693.309
654.819;30764.639;   -9.371;36422.906
655.397;30956.525;  -10.511;38213.484
655.975;30785.055;  -10.371;39507.625
656.553;30453.869;  -10.051;39498.223
657.130;28815.109;  -10.061;40395.480
657.708;28152.373;   -9.561;39242.020
658.286;28164.594;  -11.511;38920.020
658.863;29358.807;  -10.261;40202.898
659.441;32378.414;   -7.531;39677.938
660.018;31817.428;   -9.501;40413.355
660.596;30752.260;  -13.301;39931.414
661.173;32906.867;  -11.211;39604.531
661.750;33085.477;   -9.951;39700.070
662.328;31792.393;   -9.390;39292.809
662.905;30725.766;  -11.330;38235.648
663.482;26308.799;   -9.050;36212.305
664.060;24410.402;   -8.240;35944.945
664.637;27273.189;  -10.050;35170.785
665.214;29201.104;  -11.760;34197.523
665.791;30587.193;  -10.530;34549.520
666.368;29383.338;   -9.690;35118.578
666.945;30314.361;   -9.320;36019.418
667.522;31900.748;  -11.860;36048.438
668.099;31538.020;  -10.770;36243.914
668.676;30466.008;   -6.260;35958.875
669.253;29125.633;   -7.000;37384.730
669.830;29868.818;  -10.190;36779.629
670.407;29592.242;   -9.550;35231.289
670.984;29583.758;   -9.260;35544.270
671.560;30109.186;   -9.280;35466.867
672.137;29134.410;  -11.810;34280.863
672.714;29879.631;  -11.490;34632.863
673.290;30469.234;   -7.740;35135.422
673.867;30751.771;  -10.660;36114.480
674.443;30603.311;  -12.230;36152.859
675.020;28918.537;  -10.450;35327.238
675.596;29982.672;   -9.260;35795.176
676.173;30517.205;  -10.780;35430.355
676.749;30311.344;  -13.690;33549.516
677.326;30255.313;  -11.980;32210.012
677.902;30205.057;   -8.630;32068.871
678.478;29483.412;  -10.730;32583.891
679.054;28926.572;  -10.520;32088.928
679.631;29184.996;  -11.920;30978.848
680.207;30857.709;   -7.490;33160.887
680.783;32575.641;   -9.860;35570.363
681.359;31599.422;  -13.380;36125.184
681.935;30751.207;  -12.480;35240.922
682.511;29797.547;   -7.900;34429.961
683.087;29889.949;   -7.710;34463.680
683.663;29589.066;  -11.480;34648.898
684.239;28396.723;  -14.090;34546.457
684.815;28070.348;   -7.560;35586.375
685.390;28429.061;   -9.910;35821.895
685.966;28996.639;  -11.159;35085.871
686.542;31601.336;  -11.169;34198.230
687.118;33535.023;   -5.959;32847.707
687.693;33576.863;  -10.329;32794.027
688.269;33359.914;  -12.059;33072.367
688.844;31632.566;  -10.909;33141.664
689.420;29429.225;   -8.019;33965.742
689.995;27038.299;   -8.399;34655.523
690.571;25719.920;  -10.949;33576.742
691.146;26272.619;   -9.619;32657.219
691.722;25715.541;   -8.999;32526.979
692.297;25688.213;  -11.589;33014.617
692.872;27587.127;  -11.739;34012.254
693.448;27099.260;  -11.059;34237.434
694.023;26295.064;  -10.139;34142.672
694.598;28276.160;   -9.029;34132.031
695.173;28570.314;  -13.319;34205.250
695.748;27955.346;  -10.169;32882.488
696.323;28063.477;   -8.339;32864.906
696.898;28399.221;   -8.169;33170.004
697.473;28160.211;  -12.309;32432.984
698.048;27523.184;  -10.989;31649.303
698.623;27564.930;   -9.329;30778.141
699.198;29596.955;   -9.849;31140.119
699.773;30364.564;  -12.329;31764.299
700.348;28549.768;  -10.389;31780.816
700.922;28449.287;   -9.269;32046.375
701.497;29143.596;   -9.329;32603.574
702.072;29344.240;  -10.789;34799.871
702.646;28143.633;  -10.839;35793.172
703.221;26210.086;   -9.099;35201.590
703.795;28426.955;  -10.939;34764.527
704.370;28775.572;  -12.859;34307.367
704.944;29131.764;  -11.559;33509.887
705.519;30057.926;   -7.939;31388.584
706.093;31632.986;  -10.499;31340.104
706.668;31867.049;  -11.289;32630.281
707.242;30740.049;  -11.509;32728.779
707.816;29101.121;   -9.639;32947.238
708.390;27509.592;  -11.429;33277.855
708.965;28092.934;  -11.869;33834.336
709.539;28219.150;  -11.689;33709.273
710.113;28770.609;  -10.478;33044.313
710.687;28218.281;  -10.228;31953.992
711.261;26516.934;  -13.698;30505.949
711.835;26395.064;  -13.378;30262.369
712.409;27243.053;   -9.698;31254.447
712.983;29056.725;  -11.898;32754.986
713.557;29960.686;  -15.138;34018.824
714.131;29459.727;  -14.098;34579.625
714.704;28466.213;   -9.958;33890.262
715.278;26277.371;  -10.028;33531.102
715.852;25410.252;  -11.148;33601.660
716.425;26257.609;   -9.068;33515.117
716.999;26918.084;  -10.038;33185.555
717.573;27918.961;   -9.798;33905.996
718.146;29072.721;  -12.378;35199.293
718.720;28935.789;  -11.918;35060.551
719.293;28390.266;   -8.088;34973.230
719.867;31347.170;  -10.888;36394.449
720.440;30994.791;  -11.938;36663.008
721.013;29189.598;  -12.818;35102.426
721.587;27829.488;  -10.298;33985.266
722.160;26960.549;  -10.048;33524.965
722.733;25942.811;  -12.108;32987.043
723.306;26277.943;  -10.818;33066.301
723.880;28556.021;   -8.908;33399.500
724.453;30248.168;   -9.878;33468.297
725.026;29218.123;  -11.188;33816.637
725.599;26720.150;  -11.678;32797.996
726.172;27328.328;   -9.618;33187.434
726.745;28499.443;   -8.258;35136.613
727.318;29878.537;  -12.978;35751.730
727.891;30227.336;  -12.148;35890.430
728.463;29779.141;   -8.968;34822.090
729.036;28722.027;  -10.188;32895.086
729.609;28966.125;  -11.788;31823.225
730.182;25889.746;  -11.788;31445.283
730.754;23397.848;  -10.268;32373.223
731.327;23463.563;   -9.998;33676.820
731.900;24019.668;  -12.228;33417.000
732.472;25528.227;  -13.848;31978.498
733.045;27401.328;   -8.698;30368.777
733.617;27491.041;  -10.607;30574.215
734.190;27024.346;  -11.507;31280.975
734.762;24086.225;  -13.647;31674.412
735.334;22437.059;   -9.767;31247.291
735.907;23064.838;   -9.897;29876.211
736.479;23148.340;  -11.637;29808.488
737.051;22821.279;   -9.567;30233.547
737.623;23753.861;   -8.187;31469.086
738.195;24645.129;  -11.187;31784.225
738.768;26640.768;  -12.337;32120.523
739.340;26666.170;  -12.227;32094.342
739.912;25365.162;  -11.057;31312.680
740.484;23954.291;  -10.207;31946.238
741.056;22939.277;  -10.047;32984.059
741.628;24827.012;  -13.627;33897.715
742.199;27104.061;   -7.177;33213.016
742.771;25374.723;  -10.797;31369.113
743.343;22996.691;  -11.997;31865.473
743.915;22011.047;  -12.867;32388.631
744.487;22139.482;   -7.617;31079.568
745.058;22224.760;   -9.557;30570.107
745.630;22589.447;   -9.877;29970.127
746.201;23323.877;  -14.177;29186.766
746.773;23684.047;   -9.237;28805.723
747.344;23615.352;   -9.847;29591.223
747.916;22344.100;  -11.657;31412.201
748.487;22632.383;  -10.587;32194.898
749.059;23835.947;   -8.707;32533.719
749.630;24568.266;  -10.537;32158.518
750.201;23679.424;  -11.687;30855.395
750.773;21896.209;  -11.647;28622.555
751.344;21885.924;   -7.147;28405.732
751.915;23144.266;   -9.757;28461.551
752.486;22934.088;  -12.427;27842.850
753.057;20699.434;  -12.227;27845.008
753.628;19546.844;  -10.417;27728.107
754.199;20662.836;  -11.767;27381.086
754.770;21587.971;  -11.187;25882.203
755.341;21579.523;  -10.507;25886.184
755.912;21563.564;   -9.387;26050.861
756.483;20959.875;  -10.647;26798.779
757.054;19152.576;  -11.837;27048.238
757.625;17909.707;  -12.716;26294.838
758.195;17772.410;   -9.666;26142.076
758.766;17563.451;   -8.656;26392.234
759.337;18335.787;  -12.856;26334.594
759.907;20069.486;  -13.366;27579.652
760.478;20934.268;   -8.576;28352.770
761.048;20272.984;  -10.526;27325.088
761.619;19439.102;  -11.116;26460.428
762.189;19497.771;  -12.136;26029.826
762.760;20680.027;   -9.456;26430.145
763.330;21761.418;   -7.136;26670.902
763.900;21120.633;  -11.786;26603.021
764.471;18441.307;  -11.546;25542.740
765.041;17207.314;   -8.096;24358.459
765.611;17308.523;   -8.876;23991.297
766.181;17713.346;  -12.196;24470.236
766.751;18616.869;  -11.636;24845.975
767.321;18351.219;  -10.156;24533.633
767.891;16415.703;  -11.766;24916.492
768.461;15914.510;  -14.936;24776.771
769.031;16470.111;  -12.356;24757.988
769.601;18015.119;   -7.526;24181.088
770.171;17788.254;  -10.766;23670.387
770.741;17009.307;  -13.176;22960.045
771.311;17272.697;  -10.616;22917.523
771.880;17609.197;   -9.576;23562.941
772.450;17267.176;  -10.336;24216.500
773.020;17390.855;  -13.516;24140.398
773.589;16861.646;  -13.466;24414.857
774.159;16211.810;   -8.686;23858.717
774.729;15741.230;   -9.476;22942.135
775.298;15196.426;  -13.666;22324.033
775.867;14785.598;  -11.716;21140.313
776.437;14854.760;   -9.906;20838.092
777.006;14644.334;  -12.166;20599.510
777.576;14585.346;  -12.356;20508.809
778.145;14738.114;  -11.646;20732.947
778.714;14602.284;   -8.226;21062.465
779.283;13808.959;   -9.556;20949.664
779.853;13298.488;  -14.116;20508.623
780.422;13742.905;  -11.506;20649.082
780.991;13331.256;   -9.556;21527.520
781.560;12216.177;   -9.095;22632.658
782.129;12078.139;  -12.135;23048.277
782.698;12104.664;  -10.865;23438.555
783.267;11669.983;   -9.335;23267.734
783.836;11650.378;  -11.045;22415.133
784.404;12785.423;  -13.865;20443.152
784.973;13366.920;  -13.095;19699.150
785.542;13254.609;  -11.575;19763.828
786.111;13052.075;   -9.705;20341.408
786.679;12484.689;  -12.105;20207.967
787.248;12227.982;  -12.455;19516.465
787.817;12089.315;  -11.535;18900.363
788.385;11696.199;   -9.765;17879.121
788.954;11119.564;  -14.005;17658.301
789.522;10614.065;  -11.955;17788.879
790.090;11166.095;  -10.135;18118.277
790.659;11542.604;  -10.975;18338.736
791.227;11023.941;  -13.375;18508.615
791.795;11491.686;  -12.375;17898.254
792.364;11872.626;  -10.725;17295.133
792.932;12200.855;   -9.715;16822.051
793.500;12362.735;  -12.675;17040.148
794.068;12589.413;  -13.495;17179.787
794.636;12695.457;  -10.885;16664.246
795.204;12145.456;  -11.045;16524.545
795.772;12256.939;  -13.175;17274.564
796.340;11781.527;  -12.445;17891.002
796.908;11604.549;   -9.735;17648.561
797.476;11473.092;   -9.815;17064.080
798.044;10999.386;  -13.985;16672.777
798.612;10182.630;  -13.115;17023.996
799.180; 9755.306;  -10.185;16561.615
799.747; 9657.504;   -9.055;15962.773
800.315; 9423.284;  -12.385;15296.992
800.883; 9094.647;  -15.035;14801.771
801.450; 9105.628;  -10.365;14534.430
802.018; 9185.604;   -9.855;14173.248
802.585; 9349.657;  -11.905;14029.547
803.153; 9435.305;  -11.585;13836.846
803.720; 9252.827;   -9.095;13567.324
804.287; 8791.866;   -9.135;13360.622
804.855; 8377.729;  -11.604;13681.981
805.422; 8234.266;  -11.794;13536.560
805.989; 8223.056;  -10.734;13355.958
806.556; 8412.402;  -10.444;13747.896
807.124; 8678.917;  -12.764;13987.376
807.691; 8657.546;  -12.964;14038.674
808.258; 8444.569;  -11.134;14120.152
808.825; 8078.331;   -9.854;13860.111
809.392; 8116.553;  -10.504;13268.790
809.959; 7629.765;  -13.054;12680.389
810.526; 7205.337;   -8.294;12427.308
811.093; 7275.709;   -8.394;12030.105
811.659; 7866.798;  -12.304;11653.664
812.226; 8350.104;  -13.944;11637.183
812.793; 8038.482;  -10.484;11611.521
813.360; 7421.547;  -10.144;11885.181
813.926; 7136.125;  -11.684;12770.539
814.493; 6902.740;  -13.644;12677.638
815.060; 6496.578;   -9.724;11974.336
815.626; 6494.591;   -9.854;11594.715
816.193; 6903.848;  -13.254;11579.474
816.759; 6938.351;  -13.204;11666.972
817.325; 7011.697;   -9.434;11325.530
817.892; 7351.768;  -10.134;11105.369
818.458; 7782.845;  -13.474;10843.928
819.024; 7384.729;  -11.854;10714.406
819.591; 7021.701;  -10.244;10469.165
820.157; 6813.566;  -10.704;10235.523
820.723; 6338.353;  -12.324;10847.563
821.289; 6031.683;   -9.444;11040.980
821.855; 5914.772;   -8.374;10357.100
822.421; 5836.399;  -10.234; 9978.918
822.987; 5815.937;  -13.294; 9754.177
823.553; 5532.786;  -10.884;10065.755
824.119; 5380.777;   -8.884;10036.294
824.685; 5460.117;   -6.784;10029.192
825.251; 5527.817;  -12.004;10199.230
825.816; 5476.021;  -11.474; 9820.189
826.382; 5258.992;   -9.174; 9297.248
826.948; 5479.452;   -9.214; 9381.347
827.513; 5870.067;  -10.774; 9450.726
828.079; 5679.844;  -11.924; 9472.444
828.645; 5107.695;  -10.543; 9292.643
829.210; 5020.599;  -10.533; 9065.341
829.776; 5002.054;  -10.753; 9132.620
830.341; 4889.138;  -10.173; 9092.878
830.906; 5080.945;  -10.743; 9078.557
831.472; 5418.475;  -11.113; 8534.535
832.037; 5133.751;  -10.603; 8677.874
832.602; 4588.222;  -13.323; 8628.692
833.167; 4354.763;  -10.823; 8879.031
833.733; 4296.824;  -10.113; 9189.790
834.298; 4424.032;  -13.583; 9052.608
834.863; 4472.563;  -12.703; 8895.087
835.428; 4451.996;  -10.523; 8824.266
835.993; 4327.849;   -6.963; 8845.385
836.558; 4185.521;  -10.763; 8888.563
837.123; 4315.513;   -9.903; 8966.582
837.688; 4531.393;   -9.913; 8617.860
838.253; 4760.311;  -10.283; 8590.699
838.817; 4969.740;  -12.963; 8443.797
839.382; 4886.192;  -14.243; 8799.356
839.947; 4566.842;  -10.733; 8810.595
840.511; 4254.738;   -9.383; 8796.394
841.076; 3874.952;  -12.563; 8347.231
841.641; 3940.755;  -12.953; 8224.330
842.205; 4043.510;   -7.043; 8223.349
842.770; 4158.364;   -8.163; 8622.107
843.334; 4334.509;  -12.503; 8410.386
843.898; 4297.917;  -11.693; 8337.465
844.463; 4325.122;  -10.203; 8506.283
845.027; 4108.960;   -9.533; 8280.962
845.591; 3928.375;  -13.443; 8231.141
846.156; 3888.035;  -13.143; 7969.179
846.720; 3755.484;   -9.433; 7768.278
847.284; 3625.561;  -11.033; 7630.957
847.848; 3507.687;  -10.403; 7472.395
848.412; 3426.823;  -11.553; 7437.394
848.976; 3473.331;   -8.393; 7674.592
849.540; 3413.460;   -8.713; 7836.011
850.104; 3546.588;  -12.463; 7913.669
850.668; 3904.873;  -12.973; 7694.508
851.232; 3992.732;  -10.793; 7756.887
851.796; 3818.889;  -10.662; 7926.545
852.359; 3527.903;  -13.082; 7827.844
852.923; 3369.641;  -12.192; 7641.163
853.487; 3180.926;  -11.912; 7342.501
854.050; 3129.245;  -10.892; 7042.820
854.614; 3271.539;  -13.992; 7151.338
855.177; 3406.453;  -11.732; 7105.077
855.741; 3449.604;   -8.962; 6989.675
856.304; 3343.049;   -9.442; 6596.634
856.868; 3293.986;  -14.192; 6356.272
857.431; 3402.310;  -12.702; 6468.571
857.995; 3531.844;   -9.942; 6373.210
858.558; 3543.981;   -9.112; 6324.448
859.121; 3264.889;  -12.932; 6408.327
859.684; 3140.182;  -13.442; 6347.886
860.247; 3247.758;  -10.632; 6321.264
860.810; 3233.940;  -11.272; 6301.903
861.374; 2972.523;   -9.832; 6607.881
861.937; 2719.432;  -11.762; 6408.200
862.500; 2720.409;   -9.722; 6572.639
863.062; 2911.142;  -10.512; 6387.297
863.625; 3084.529;  -11.232; 6190.836
864.188; 3240.741;  -14.112; 5807.254
864.751; 3304.734;  -11.302; 5682.413
865.314; 3188.816;  -10.112; 5547.492
865.876; 2986.529;  -12.182; 5500.150
866.439; 2983.524;  -10.722; 5415.909
867.002; 2929.680;   -9.252; 5501.567
867.564; 2712.584;   -9.572; 5413.946
868.127; 2480.406;  -13.142; 5160.325
868.689; 2367.890;  -12.902; 5133.183
869.252; 2267.364;   -9.732; 5252.382
869.814; 2176.549;   -9.432; 5297.141
870.377; 2197.573;  -11.552; 5390.919
870.939; 2274.044;   -9.052; 5599.898
871.501; 2334.910;  -10.982; 5248.336
872.063; 2333.520;  -12.292; 4854.235
872.626; 2291.649;  -14.912; 4817.074
873.188; 2329.661;  -13.112; 4987.732
873.750; 2299.666;  -13.442; 4868.651
874.312; 2196.168;   -9.402; 4779.330
874.874; 2101.153;  -11.062; 4866.348
875.436; 2009.810;  -13.931; 4718.887
875.998; 2000.397;   -9.561; 4660.005
876.560; 2024.792;  -11.321; 4462.964
877.122; 1962.615;  -12.221; 4145.042
877.683; 1870.726;  -12.191; 4056.481
878.245; 1801.255;  -12.101; 3950.740
878.807; 1851.944;   -8.971; 4058.958
879.369; 1881.939;  -12.071; 3954.677
879.930; 1788.824;  -14.621; 3941.495
880.492; 1727.784;  -10.311; 4067.014
881.053; 1688.189;  -10.901; 3859.633
881.615; 1563.783;  -14.411; 3776.071
882.176; 1461.437;  -13.761; 3734.750
882.738; 1434.855;   -9.181; 3678.489
883.299; 1468.804;  -11.791; 3405.407
883.860; 1571.342;  -13.121; 3351.106
884.422; 1637.622;  -11.211; 3394.044
884.983; 1522.993;  -10.091; 3166.443
885.544; 1217.594;   -8.461; 3189.802
886.105;  884.417;  -12.361; 3160.360
886.666;  675.897;  -14.141; 3093.059
887.227;  600.757;  -11.361; 2941.957
887.788;  590.779;  -11.401; 2974.836
888.349;  600.499;  -13.791; 2721.214
888.910;  640.127;  -13.191; 2696.493
889.471;  681.015;   -9.881; 2560.172
890.032;  689.630;   -9.881; 2558.190
890.593;  691.237;  -10.371; 2567.669
891.153;  684.119;  -13.301; 2460.307
891.714;  656.288;  -11.431; 2372.046
892.275;  632.519;  -11.291; 2309.505
892.835;  605.368;  -11.471; 2382.543
893.396;  563.023;  -11.541; 2295.502
893.956;  516.848;  -11.181; 2162.420
894.517;  488.586;  -11.741; 2125.439
895.077;  487.290;  -11.671; 2086.978
895.638;  488.148;  -11.311; 2126.316
896.198;  462.584;   -9.831; 1838.275
896.758;  424.333;   -8.421; 1892.813
897.319;  398.116;  -12.351; 1792.232
897.879;  383.879;  -13.511; 1762.751
898.439;  360.957;  -12.001; 1661.149
898.999;  338.996;  -10.180; 1781.468
899.559;  331.057;  -12.030; 1703.347
900.119;  327.113;  -15.710; 1537.525
900.679;  323.785;   -8.900; 1638.384
901.239;  310.536;   -8.340; 1527.902
901.799;  301.603;  -13.910; 1456.441
902.359;  296.462;  -13.460; 1357.140
902.919;  289.484;  -11.490; 1331.118
903.479;  277.861;  -12.110; 1317.257
904.038;  257.927;  -11.720; 1262.595
904.598;  242.496;  -13.610; 1152.034
905.158;  239.803;  -11.040; 1240.893
905.717;  234.039;  -10.900; 1233.691
906.277;  223.120;  -15.080; 1217.330
906.836;  212.702;  -13.380; 1222.408
907.396;  203.571;  -10.780; 1193.047
907.955;  194.019;   -8.500; 1182.526
908.515;  187.000;  -12.760; 1099.364
909.074;  180.539;  -11.900; 1092.863
909.633;  176.181;   -8.950; 1069.121
910.192;  173.516;   -8.770; 1196.460
910.752;  168.252;  -12.390; 1029.960
911.311;  165.831;  -13.680; 1009.780
911.870;  163.031;  -12.370;  971.460
912.429;  165.309;  -10.900; 1094.080
912.988;  164.192;  -11.690; 1081.060
913.547;  159.421;  -13.240;  940.380
914.106;  154.739;  -11.990;  999.420
914.665;  151.717;   -9.990;  984.020
915.224;  150.917;  -12.880; 1035.760
915.782;  151.922;  -12.350;  922.560
916.341;  151.426;   -9.110; 1049.840
916.900;  146.664;   -9.270;  925.260
917.458;  145.761;  -13.240;  884.220
918.017;  146.137;  -13.550;  942.600
918.576;  144.315;  -12.320;  904.440
919.134;  142.552;  -11.490;  837.980
919.693;  141.462;  -13.670;  893.060
920.251;  138.732;  -15.470;  876.500
920.809;  137.320;  -11.290;  839.580
921.368;  137.639;  -10.210;  885.360
921.926;  137.286;  -12.140;  842.940
922.484;  135.941;  -13.080;  903.360
923.042;  134.827;  -11.720;  880.340
923.601;  137.642;   -7.480;  998.680
924.159;  136.262;  -11.570;  935.560
924.717;  133.170;  -13.840;  841.080
925.275;  132.710;  -10.640;  903.240
925.833;  132.877;  -11.540;  779.320
926.391;  133.315;  -12.960;  938.380
926.949;  132.194;  -14.130;  857.680
927.506;  132.827;  -11.750;  903.500
928.064;  132.746;  -10.250;  877.580
928.622;  132.110;  -13.030;  880.100
929.180;  132.344;  -13.400;  814.180
929.737;  133.576;  -10.700;  808.540
930.295;  137.190;  -10.070;  928.480
930.853;  138.610;  -11.960;  849.100
931.410;  139.510;  -13.120;  821.120
931.968;  138.502;  -10.770;  940.660
932.525;  138.278;  -10.680;  909.380
933.082;  138.551;  -13.130;  811.440
933.640;  139.486;  -13.210;  925.900
934.197;  137.365;  -11.060;  886.360
934.754;  137.628;   -9.580;  897.780
935.312;  140.731;  -14.000;  863.340
935.869;  145.607;  -10.710; 1012.980
936.426;  145.438;   -9.860;  872.800
936.983;  147.020;   -9.710;  889.020
937.540;  145.733;  -13.990;  838.280
938.097;  144.380;  -14.040;  940.120
938.654;  144.562;  -10.310;  898.860
939.211;  147.955;  -10.560;  952.480
939.768;  151.463;  -13.900;  915.420
940.324;  154.250;  -14.760;  904.200
940.881;  154.475;  -10.370;  878.500
941.438;  155.540;   -8.260; 1021.200
941.995;  151.781;  -12.540;  992.560
942.551;  150.137;  -14.670;  875.620
943.108;  149.801;  -10.450;  937.920
943.664;  151.973;  -10.750;  869.340
944.221;  155.507;  -11.550; 1088.140
944.777;  153.429;  -14.770;  869.680
945.334;  153.766;  -12.820;  884.840
945.890;  155.247;  -10.130;  946.480
946.446;  155.564;  -13.470;  947.020
947.003;  156.562;  -12.120;  964.940
947.559;  159.530;   -9.980; 1063.040
948.115;  158.097;   -9.080; 1026.540
948.671;  158.055;  -10.830;  967.300
949.227;  155.754;  -12.440;  859.560
949.783;  152.439;  -12.910;  858.900
950.339;  154.063;  -10.270;  991.000
950.895;  153.887;  -13.630; 1023.840
951.451;  152.911;  -15.100;  925.280
952.007;  153.974;  -11.330;  998.540
952.563;  153.735;  -10.580;  937.780
953.118;  153.163;  -13.440;  904.940
953.674;  152.802;  -12.710;  935.780
954.230;  152.662;  -10.350;  949.640
954.785;  149.601;   -9.190;  936.640
955.341;  148.148;  -11.200;  998.160
955.897;  145.493;  -16.560;  834.660
956.452;  146.441;  -12.570;  953.840
957.008;  145.849;   -7.970; 1083.640
957.563;  143.698;  -11.940; 1009.540
958.118;  138.737;  -13.450;  877.700
958.674;  139.422;  -12.030;  946.780
959.229;  140.939;   -9.410; 1013.980
959.784;  139.136;  -12.000;  832.400
960.339;  138.178;  -14.780; 1001.280
960.894;  134.602;   -9.860;  963.760
961.449;  131.011;   -9.970;  859.960
962.004;  131.283;  -10.900; 1212.840
962.559;  125.089;  -13.150;  860.140
963.114;  122.786;  -13.740;  742.480
963.669;  123.307;   -9.820;  915.500
964.224;  121.356;  -13.890;  874.340
964.779;  120.325;  -12.600;  828.420
965.334;  120.837;  -10.950; 1017.860
965.888;  120.039;  -11.170;  875.360
966.443;  123.174;  -12.540;  972.380
966.998;  122.199;  -15.780;  819.460
967.552;  120.909;   -9.760;  908.380
968.107;  116.942;   -9.060;  868.300
968.661;  118.407;  -11.950;  922.440
969.216;  119.724;  -12.800;  856.280
969.770;  119.302;  -11.210;  917.200
970.324;  118.203;  -11.610;  923.140
970.879;  116.012;  -11.370;  947.180
971.433;  111.520;  -12.540;  952.720
971.987;  107.090;  -11.320;  895.340
972.541;  103.761;  -10.720;  917.100
973.095;  104.080;   -9.680; 1009.460
973.649;  102.874;  -11.440;  809.480
974.203;  100.790;  -11.210;  829.040
974.757;  101.714;  -10.240;  855.220
975.311;  101.196;  -13.720;  872.600
975.865;   99.243;  -13.770;  881.820
976.419;   97.932;  -11.690;  857.400
976.973;   98.696;   -9.510;  849.620
977.526;  100.537;  -12.620;  949.920
978.080;   99.266;  -12.010;  796.780
978.634;  100.686;  -10.170;  921.320
979.187;   98.615;   -9.020;  905.400
979.741;   95.801;   -9.820; 1018.380
980.294;   90.623;  -14.870;  789.160
980.848;   88.763;  -12.380;  717.220
981.401;   91.332;  -10.350;  816.540
981.955;   93.641;  -13.720;  844.300
982.508;   92.025;  -11.490;  746.340
983.061;   92.891;  -10.000;  915.260
983.615;   88.995;  -11.480;  798.800
984.168;   85.692;  -13.220;  770.080
984.721;   84.650;  -13.960;  880.760
985.274;   84.191;  -10.870;  867.500
985.827;   82.367;   -9.790;  834.220
986.380;   80.638;  -13.120;  721.340
986.933;   79.895;  -12.450;  864.800
987.486;   78.075;  -10.210;  861.920
988.039;   77.052;   -8.430;  863.100
988.591;   75.881;  -10.520;  893.260
989.144;   72.547;  -14.860;  737.260
989.697;   71.789;  -13.080;  758.740
990.250;   72.363;  -10.150;  858.100
990.802;   71.351;  -13.430;  755.860
991.355;   72.855;  -12.750;  974.880
991.907;   70.247;  -12.040;  864.320
992.460;   67.640;  -11.330;  753.760
993.012;   67.127;  -13.610;  749.540
993.565;   66.280;  -13.460;  711.360
994.117;   67.375;   -9.360;  950.780
994.669;   64.029;  -11.300;  701.320
995.221;   62.816;  -13.540;  791.920
995.774;   60.655;  -13.430;  787.580
996.326;   58.914;  -12.520;  740.220
996.878;   58.960;  -10.950;  838.420
997.430;   56.427;  -14.300;  699.860
997.982;   54.960;  -13.760;  750.140
998.534;   54.629;  -11.530;  739.060
999.086;   53.587;  -10.310;  738.220
999.638;   52.561;  -12.530;  661.380
1000.190;   52.343;  -11.840;  699.320
1000.741;   51.463;  -10.260;  742.700
1001.293;   51.647;   -8.860;  686.020
1001.845;   49.862;  -13.700;  676.640
1002.396;   50.205;  -12.100;  743.400
1002.948;   50.019;  -12.760;  737.400
1003.500;   48.185;  -10.380;  723.780
1004.051;   49.036;  -11.900;  907.580
1004.603;   46.134;  -12.250;  791.820
1005.154;   42.761;  -13.210;  608.980
1005.705;   42.965;  -10.950;  723.960
1006.257;   41.866;  -13.880;  707.220
1006.808;   41.539;  -12.840;  685.460
1007.359;   40.625;  -10.570;  763.240
1007.910;   39.605;   -9.620;  646.640
1008.461;   39.958;  -13.630;  732.940
1009.013;   38.795;  -17.200;  588.340
1009.564;   39.017;  -10.200;  793.520
1010.115;   37.433;  -12.570;  597.040
1010.665;   37.032;  -15.150;  602.160
1011.216;   37.797;  -14.480;  667.920
1011.767;   36.716;  -11.340;  697.920
1012.318;   37.069;   -9.780;  736.980
1012.869;   36.129;  -12.380;  679.000
1013.419;   34.879;  -15.560;  603.120
1013.970;   35.070;  -11.010;  666.640
1014.521;   34.939;  -11.610;  620.620
1015.071;   35.925;  -13.450;  670.380
1015.622;   35.480;  -13.870;  635.460
1016.172;   34.030;  -11.610;  596.820
1016.723;   33.900;  -12.120;  614.380
1017.273;   33.889;  -13.620;  604.160
1017.823;   33.318;  -14.140;  650.340
1018.374;   33.075;  -12.800;  611.760
1018.924;   33.223;  -12.340;  716.880
1019.474;   33.997;  -11.410;  718.880
1020.024;   32.152;  -14.770;  657.580
1020.574;   32.564;   -9.780;  726.160
1021.124;   32.619;   -8.560;  673.580
1021.674;   31.653;  -15.190;  559.120
1022.224;   32.816;  -13.530;  708.940
1022.774;   32.258;  -13.280;  668.820
1023.324;   32.285;  -10.690;  753.520
1023.874;   33.296;  -10.240;  875.760
1024.423;   31.038;  -12.540;  613.700
1024.973;   30.435;  -10.010;  610.760
1025.523;   29.732;  -10.550;  620.960
1026.072;   29.340;  -13.560;  606.420
1026.622;   29.799;  -15.120;  675.740
1027.172;   30.851;  -11.260;  715.660
1027.721;   28.853;  -11.410;  601.220
1028.270;   29.544;  -13.530;  663.400
1028.820;   29.608;  -13.680;  638.080
1029.369;   28.822;  -13.520;  612.700
1029.918;   29.709;  -10.980;  649.840
1030.468;   28.224;  -13.530;  564.780
1031.017;   28.731;  -13.170;  634.800
1031.566;   27.070;  -12.200;  608.900
1032.115;   28.274;   -9.960;  694.500
1032.664;   26.888;  -13.210;  596.480
1033.213;   28.057;  -12.500;  735.420
1033.762;   26.804;  -11.910;  635.620
1034.311;   27.477;   -9.640;  677.220
1034.860;   27.220;  -13.310;  691.000
1035.408;   27.945;  -11.830;  722.720
1035.957;   27.051;  -12.000;  719.540
1036.506;   25.605;  -11.690;  530.800
1037.055;   28.121;  -10.990;  844.320
1037.603;   26.109;  -15.120;  664.000
1038.152;   24.747;  -12.450;  534.760
1038.700;   24.777;  -10.560;  585.740
1039.249;   25.628;  -11.080;  681.220
1039.797;   25.412;  -12.540;  633.360
1040.345;   25.720;  -11.920;  705.420
1040.894;   24.800;  -11.410;  625.300
1041.442;   24.202;  -14.320;  632.200
1041.990;   23.530;  -16.240;  559.160
1042.538;   23.571;  -11.680;  536.180
1043.087;   23.238;  -10.760;  570.860
1043.635;   24.838;  -11.850;  670.500
1044.183;   23.737;  -15.480;  586.400
1044.731;   23.260;  -11.770;  576.000
1045.279;   23.492;  -13.090;  674.920
1045.827;   25.793;  -12.440;  892.400
1046.374;   22.838;  -13.840;  515.420
1046.922;   22.286;  -13.220;  590.580
1047.470;   23.366;  -10.230;  691.300
1048.018;   23.957;  -14.590;  647.960
1048.565;   24.080;  -12.050;  708.600
1049.113;   22.339;  -11.650;  557.000
1049.660;   22.771;  -10.510;  629.660
1050.208;   22.191;  -13.310;  675.640
1050.755;   21.841;  -15.900;  606.580
1051.303;   21.422;  -11.430;  686.820
1051.850;   21.862;   -8.480;  635.120
1052.397;   19.986;  -15.010;  473.960
1052.945;   20.905;  -13.960;  617.760
1053.492;   22.087;  -13.150;  741.840
1054.039;   21.961;   -9.630;  720.180
1054.586;   20.390;  -13.680;  557.240
1055.133;   21.937;  -14.570;  693.140
1055.680;   20.999;  -13.820;  646.620
1056.227;   19.947;  -11.730;  542.780
1056.774;   22.377;  -12.480;  794.980
1057.321;   19.149;  -13.930;  523.260
1057.868;   19.743;  -11.690;  651.320
1058.415;   19.893;   -9.520;  651.980
1058.961;   20.087;  -13.160;  678.940
1059.508;   19.748;  -12.920;  643.820
1060.055;   18.892;  -11.920;  581.780
1060.601;   19.935;  -11.500;  624.300
1061.148;   19.750;  -14.330;  616.820
1061.694;   18.725;  -16.870;  592.580
1062.241;   18.878;  -10.330;  596.320
1062.787;   19.279;  -10.620;  663.140
1063.334;   20.592;  -10.110;  808.560
1063.880;   19.066;  -13.400;  668.360
1064.426;   18.808;  -10.680;  706.820
1064.972;   17.690;   -9.920;  601.340
1065.518;   17.460;  -10.980;  566.640
1066.065;   18.762;  -14.890;  624.460
1066.611;   17.160;  -12.870;  598.800
1067.157;   18.489;  -12.950;  641.860
1067.703;   18.511;  -13.540;  668.480
1068.249;   18.100;  -13.540;  605.220
1068.794;   17.525;  -12.600;  626.880
1069.340;   16.273;  -10.620;  578.960
1069.886;   16.757;  -12.830;  590.700
1070.432;   16.195;  -14.870;  541.720
1070.977;   16.103;  -11.980;  601.080
1071.523;   16.594;   -8.200;  573.060
1072.068;   17.182;  -12.330;  582.000
1072.614;   16.809;  -16.370;  527.760
1073.160;   17.535;  -11.100;  687.040
1073.705;   15.796;  -10.480;  572.520
1074.250;   16.034;  -14.520;  559.900
1074.796;   16.558;  -11.460;  655.160
1075.341;   16.304;  -11.950;  664.100
1075.886;   16.267;  -11.460;  594.240
1076.431;   16.004;  -13.770;  649.880
1076.976;   14.877;  -12.680;  639.220
1077.521;   14.365;  -13.170;  583.080
1078.067;   14.467;  -10.860;  579.400
1078.612;   16.039;  -13.920;  661.620
1079.156;   15.106;  -13.880;  601.540
1079.701;   15.110;  -13.120;  693.260
1080.246;   15.847;   -9.940;  696.300
1080.791;   15.357;  -14.740;  625.020
1081.336;   14.513;  -13.750;  659.320
1081.880;   14.622;  -13.400;  649.680
1082.425;   13.699;  -12.220;  573.480
1082.970;   15.079;  -11.610;  717.040
1083.514;   13.588;  -13.580;  597.000
1084.059;   13.218;  -12.810;  586.720
1084.603;   13.257;  -12.320;  565.840
1085.147;   13.836;  -13.190;  645.220
1085.692;   14.323;  -12.480;  716.800
1086.236;   12.666;  -13.020;  503.140
1086.780;   14.402;   -9.190;  751.440
1087.325;   13.993;  -12.480;  654.620
1087.869;   13.344;  -12.450;  610.700
1088.413;   13.917;  -12.240;  705.040
1088.957;   11.942;   -9.020;  543.400
1089.501;   14.175;  -10.320;  766.640
1090.045;   13.510;  -12.720;  726.480
1090.589;   10.995;  -13.690;  569.920
1091.133;   12.542;  -10.020;  673.340
1091.676;   12.968;  -12.330;  591.940
1092.220;   12.101;  -14.970;  600.920
1092.764;   12.874;  -12.430;  706.960
1093.307;   13.048;   -9.800;  673.780
1093.851;   10.736;  -14.970;  556.540
1094.395;   11.555;  -15.310;  683.140
1094.938;   10.903;  -10.370;  632.520
1095.482;   11.741;  -11.050;  559.800
1096.025;   12.002;  -11.840;  710.880
1096.568;   12.363;  -12.840;  779.280
1097.112;    9.797;  -14.700;  508.180
1097.655;   11.440;   -8.720;  603.000
1098.198;   10.316;  -13.610;  600.180
1098.741;   10.121;  -13.350;  612.860
1099.285;   10.753;  -11.230;  657.300
1099.828;    9.499;  -11.840;  439.400
1100.371;    9.750;  -10.840;  608.160
1100.914;   10.370;  -14.190;  682.660
1101.457;    9.990;  -11.240;  679.900
1101.999;    9.746;  -11.270;  584.680
1102.542;   10.840;  -11.480;  641.440
1103.085;    9.246;  -11.750;  658.500
1103.628;   10.599;  -11.400;  762.060
1104.170;    9.591;  -10.490;  588.280
1104.713;   10.335;  -10.600;  646.700
1105.256;    9.209;  -14.360;  557.440
1105.798;    7.998;  -13.210;  499.980
1106.341;   10.396;  -10.270;  728.900
1106.883;    8.896;  -12.200;  521.340
1107.425;    8.988;  -13.110;  668.180
1107.968;    8.562;  -12.840;  612.380
1108.510;    9.409;   -6.480;  684.960
1109.052;    7.663;  -13.940;  612.620
1109.594;    7.899;  -13.690;  554.440
1110.136;    9.384;  -11.880;  643.220
1110.679;    8.415;   -9.500;  633.080
1111.221;    8.786;  -14.160;  604.460
1111.763;    8.048;  -13.980;  559.220
1112.304;    7.144;  -13.880;  547.140
1112.846;    7.834;  -12.210;  666.240
1113.388;   10.556;  -11.390;  942.180
1113.930;    7.979;  -14.540;  694.200
1114.472;    7.285;  -12.640;  606.540
1115.013;    5.881;  -11.620;  551.280
1115.555;    6.950;  -13.640;  587.100
1116.097;    6.298;  -15.380;  579.480
1116.638;    7.600;  -12.640;  684.600
1117.180;    7.837;   -9.850;  667.740
1117.721;    7.526;  -13.690;  568.580
1118.262;    7.662;  -12.680;  677.960
1118.804;    7.678;  -12.530;  637.340
1119.345;    6.189;  -11.690;  578.400
1119.886;    7.921;  -13.380;  704.040
1120.427;    6.194;  -14.070;  589.020
1120.969;    5.648;  -13.500;  597.920
1121.510;    6.168;  -11.480;  563.060
1122.051;    7.016;  -12.830;  723.580
1122.592;    5.483;  -14.290;  655.420
1123.133;    4.208;  -12.400;  547.940
1123.673;    6.771;  -10.130;  706.480
1124.214;    5.852;  -12.930;  612.460
1124.755;    5.621;  -14.380;  639.460
1125.296;    6.713;  -14.000;  627.320
1125.836;    6.020;  -10.070;  691.500
1126.377;    5.400;  -12.640;  599.660
1126.918;    5.726;  -12.960;  614.980
1127.458;    5.132;  -13.350;  622.220
1127.999;    5.644;  -10.750;  656.980
1128.539;    5.820;  -12.350;  694.240
1129.079;    4.398;  -14.860;  632.720
1129.620;    3.867;  -13.840;  558.100
1130.160;    4.685;  -12.330;  539.480
1130.700;    4.606;  -14.530;  640.840
1131.240;    5.668;  -12.530;  643.700
1131.781;    4.328;  -14.450;  619.680
1132.321;    4.561;   -9.790;  599.120
1132.861;    3.054;  -14.860;  564.200
1133.401;    3.140;  -14.290;  593.940
1133.941;    3.787;  -11.750;  626.280
1134.481;    3.608;   -9.920;  597.580
1135.020;    3.613;  -12.290;  609.160
1135.560;    4.524;  -11.650;  674.940
1136.100;    3.546;  -16.270;  501.160
1136.640;    3.048;  -10.890;  510.480
1137.179;    3.385;  -14.180;  537.960
1137.719;    3.871;  -16.250;  605.400
1138.258;    3.404;  -14.230;  587.360
1138.798;    3.370;   -9.090;  663.780
1139.337;    2.497;  -15.130;  482.840
1139.877;    3.747;  -13.680;  642.360
1140.416;    5.097;  -11.320;  878.060
1140.955;    2.873;  -10.860;  535.380
1141.494;    3.260;  -12.920;  669.280
1142.034;    2.866;  -13.930;  583.520
1142.573;    3.689;  -11.440;  646.280
1143.112;    2.258;  -12.000;  553.480
1143.651;    2.606;  -13.670;  536.480
1144.190;    2.624;  -12.730;  691.640
1144.729;    2.935;  -14.560;  607.420
1145.267;    2.841;  -11.830;  584.900
1145.806;    3.349;  -12.230;  637.040
1146.345;    1.943;  -14.130;  635.020
1146.884;    2.186;  -11.590;  622.500
1147.422;    1.316;  -12.550;  533.060
1147.961;    3.739;  -11.180;  708.460
1148.500;    2.360;  -11.510;  669.720
1149.038;    2.958;  -11.640;  632.500
1149.577;    2.652;  -10.130;  698.640
1150.115;    0.317;  -13.970;  452.280
1150.653;    2.578;  -14.520;  607.340
1151.192;    1.749;  -12.810;  552.920
1151.730;    1.294;   -9.100;  652.560
1152.268;    1.552;  -12.220;  589.520
1152.806;    1.269;  -14.140;  571.180
1153.344;    0.044;  -12.350;  577.640
1153.882;    1.860;   -8.980;  600.060
1154.421;    0.213;  -15.190;  470.620
1154.958;    1.189;  -15.210;  595.240
1155.496;    1.995;  -12.850;  645.280
1156.034;    1.002;   -9.940;  721.880
1156.572;    2.630;  -13.570;  667.060
1157.110;   -0.618;  -14.590;  473.940
1157.647;    1.314;  -13.030;  676.960
1158.185;    0.159;  -12.140;  564.320
1158.723;   -0.268;  -14.390;  509.200
1159.260;    0.628;  -14.090;  701.700
1159.798;    0.955;  -11.920;  658.160
1160.335;   -0.473;  -11.110;  631.820

