
Integration time [ms]:   3.276
Averaging Nr. [scans]: 1000
Smoothing Nr. [pixels]: 0
Data measured with spectrometer [name]: 7414430SP
Wave   ;Sample   ;Dark     ;Reference
[nm]   ;[counts] ;[counts] ;[counts] 

288.544;  149.341;    7.793;  793.890
289.143;  153.646;    7.462;  681.602
289.742;  153.678;    8.602;  828.814
290.341;  138.513;    1.321;  789.841
290.940;  127.939;   -0.709;  730.702
291.538;  129.182;    0.881;  881.108
292.137;  129.411;    0.122;  792.581
292.736;  133.591;   -1.929;  975.101
293.335;  130.636;   -8.229;  735.086
293.934;  129.949;   -5.279;  781.677
294.532;  128.541;   -1.369; 1031.958
295.131;  114.146;   -7.641;  834.394
295.730;  114.312;   -8.420;  809.588
296.328;  113.390;   -5.611;  783.442
296.927;  114.358;   -5.781;  779.652
297.525;  116.129;   -6.361;  781.236
298.124;  106.173;  -11.382;  654.009
298.722;  110.027;   -7.641;  761.933
299.321;  106.762;   -6.811;  708.597
299.919;  105.462;   -6.991;  751.918
300.518;  102.304;  -10.362;  689.338
301.116;  104.873;   -9.581;  691.381
301.715;  103.931;   -4.891;  730.222
302.313;  102.606;   -8.801;  704.943
302.911;   99.000;   -8.522;  733.830
303.509;  104.036;   -6.171;  925.627
304.108;  100.804;   -7.311;  760.383
304.706;  100.406;   -8.321;  801.664
305.304;   95.946;  -10.222;  796.707
305.902;  100.657;   -6.021;  784.484
306.500;   96.645;   -4.971;  728.200
307.098;   94.401;   -7.061;  746.560
307.696;   93.238;   -8.801;  780.432
308.294;   93.489;   -6.411;  731.359
308.892;   95.240;   -2.901;  759.769
309.490;   91.765;   -5.041;  712.161
310.088;   90.175;   -5.002;  788.444
310.686;   94.490;   -2.041;  821.749
311.284;   89.486;   -2.351;  766.040
311.882;   87.907;   -4.422;  731.225
312.480;   85.143;   -4.192;  697.167
313.078;   86.058;   -1.172;  808.331
313.675;   86.375;   -2.601;  691.600
314.273;   82.050;   -1.312;  797.837
314.871;   81.918;   -3.942;  589.829
315.468;   79.785;   -2.802;  652.090
316.066;   81.804;   -0.701;  694.427
316.664;   75.151;   -4.362;  656.351
317.261;   79.146;   -2.872;  910.128
317.859;   73.686;   -2.022;  768.735
318.456;   75.798;   -0.531;  830.096
319.054;   70.894;   -3.912;  787.828
319.651;   70.448;   -4.752;  759.928
320.249;   68.630;   -2.602;  810.188
320.846;   66.495;   -0.821;  714.286
321.443;   64.018;   -4.642;  832.135
322.041;   60.938;   -5.002;  812.315
322.638;   59.343;   -3.982;  701.456
323.235;   60.444;   -3.411;  665.683
323.833;   57.549;   -7.361;  740.354
324.430;   53.264;   -8.611;  615.900
325.027;   53.208;   -4.061;  876.855
325.624;   52.847;   -4.031;  644.532
326.221;   50.563;   -7.481;  689.717
326.818;   49.496;   -5.281;  818.332
327.415;   53.465;   -7.460;  748.828
328.012;   53.066;   -5.510;  690.585
328.609;   50.980;   -7.880;  731.389
329.206;   49.860;   -8.331;  778.621
329.803;   49.225;   -5.121;  737.841
330.400;   51.607;   -4.510;  704.260
330.997;   53.928;   -6.441;  817.147
331.594;   52.888;   -8.831;  788.185
332.191;   58.047;   -7.621;  728.722
332.787;   59.448;   -4.591;  844.463
333.384;   58.997;   -7.412;  763.093
333.981;   57.337;   -8.293;  815.687
334.578;   60.393;   -7.052;  708.378
335.174;   63.590;   -3.102;  731.469
335.771;   62.471;   -5.943;  836.456
336.367;   59.734;   -7.393;  710.631
336.964;   63.161;   -4.063;  793.266
337.561;   60.779;   -3.813;  731.112
338.157;   56.790;   -4.654;  911.916
338.754;   54.852;   -7.934;  796.589
339.350;   52.519;   -4.414;  722.493
339.946;   55.213;   -4.664;  773.135
340.543;   46.200;   -6.375;  846.136
341.139;   40.971;   -9.815;  720.836
341.735;   39.222;   -4.526;  772.593
342.332;   37.662;   -4.895;  691.472
342.928;   38.049;   -4.295;  795.394
343.524;   32.632;   -5.476;  761.684
344.120;   29.444;   -5.856;  738.562
344.716;   32.277;   -2.155;  723.717
345.313;   29.592;   -6.275;  795.342
345.909;   24.358;   -8.815;  627.336
346.505;   25.833;   -5.305;  740.247
347.101;   26.302;   -2.674;  827.864
347.697;   27.254;   -4.344;  785.398
348.293;   21.792;   -9.975;  627.244
348.889;   23.009;   -5.774;  745.914
349.485;   22.292;   -5.004;  688.205
350.081;   22.009;   -4.704;  772.592
350.676;   17.861;   -6.635;  691.606
351.272;   22.394;   -4.504;  809.530
351.868;   21.371;   -3.914;  780.497
352.464;   18.748;   -9.044;  723.932
353.059;   15.067;   -8.314;  646.017
353.655;   18.448;   -7.024;  777.063
354.251;   18.879;   -5.343;  759.845
354.846;   13.897;   -8.604;  740.646
355.442;   12.675;   -6.945;  753.071
356.038;   13.921;   -7.564;  751.708
356.633;   14.188;   -5.814;  728.594
357.229;   12.187;   -7.364;  724.757
357.824;   10.425;   -8.024;  703.600
358.420;    9.436;   -9.384;  679.726
359.015;    9.410;   -5.104;  695.357
359.610;   10.584;   -6.854;  763.920
360.206;    4.775;  -10.185;  603.240
360.801;    7.558;   -7.054;  646.503
361.396;    9.402;   -5.034;  725.975
361.992;    5.400;   -8.284;  668.220
362.587;    2.705;   -8.625;  670.160
363.182;    5.063;   -7.674;  689.631
363.777;    5.188;   -5.164;  738.242
364.372;    4.796;   -8.604;  737.314
364.967;    1.434;   -9.055;  680.744
365.563;    5.216;   -6.114;  815.567
366.158;    2.736;   -5.814;  685.161
366.753;    2.505;   -7.854;  649.263
367.348;    1.326;   -7.804;  746.056
367.942;    0.811;   -7.954;  697.298
368.537;   -0.370;   -4.984;  754.245
369.132;    0.585;   -8.564;  703.428
369.727;   -2.736;   -8.855;  638.079
370.322;   -1.896;   -6.245;  580.186
370.917;   -3.254;   -6.425;  710.646
371.511;    0.146;   -6.294;  861.834
372.106;   -2.846;   -7.685;  776.964
372.701;   -5.624;   -7.335;  585.988
373.296;   -0.759;   -4.564;  863.135
373.890;   -5.458;  -10.235;  647.840
374.485;   -7.936;   -7.885;  691.199
375.079;   -3.721;   -7.324;  738.685
375.674;   -2.569;   -3.494;  812.970
376.268;   -6.637;   -8.525;  691.759
376.863;  -12.148;  -10.086;  580.327
377.457;   -5.981;   -7.025;  662.490
378.052;   -8.534;   -3.585;  764.884
378.646;   -8.812;   -7.595;  741.167
379.240;   -8.839;   -8.335;  721.176
379.835;   -8.123;   -5.785;  636.978
380.429;  -10.475;   -4.335;  562.557
381.023;  -10.514;   -6.805;  779.205
381.617;  -12.722;   -9.195;  680.106
382.212;   -9.101;   -6.905;  685.303
382.806;   -9.051;   -3.745;  760.690
383.400;  -12.446;   -7.745;  672.281
383.994;  -13.200;   -9.765;  664.870
384.588;   -9.902;   -6.564;  697.701
385.182;   -8.974;   -5.344;  726.624
385.776;  -10.370;   -8.514;  706.875
386.370;  -13.443;   -9.555;  681.968
386.964;  -12.190;   -8.715;  684.155
387.558;  -10.622;   -6.174;  598.360
388.152;  -13.910;   -8.725;  681.959
388.745;  -11.425;   -7.965;  814.707
389.339;  -10.878;   -5.924;  747.642
389.933;   -9.306;   -5.524;  695.370
390.527;  -11.246;   -7.114;  859.029
391.120;  -16.562;  -10.725;  595.318
391.714;  -13.609;   -8.035;  711.633
392.308;  -11.244;   -3.574;  780.253
392.901;  -14.243;   -7.245;  642.460
393.495;  -16.510;   -9.285;  595.414
394.089;  -14.213;   -5.895;  760.452
394.682;  -15.058;   -4.295;  697.188
395.275;  -15.547;   -9.875;  719.927
395.869;  -16.767;   -8.485;  667.314
396.462;  -14.773;   -7.455;  616.609
397.056;  -11.512;   -5.424;  776.621
397.649;  -16.370;   -6.605;  731.575
398.242;  -13.618;   -8.224;  712.645
398.836;  -12.138;   -7.474;  766.408
399.429;  -14.137;   -7.094;  631.041
400.022;  -16.889;   -9.475;  665.902
400.615;  -14.380;   -7.145;  805.609
401.208;  -12.834;   -7.174;  691.451
401.802;  -15.067;   -5.515;  699.329
402.395;  -15.588;   -9.875;  683.502
402.988;  -17.117;   -8.845;  696.627
403.581;  -13.324;   -8.874;  646.878
404.174;  -11.358;   -5.324;  686.568
404.767;  -14.741;   -9.575;  638.583
405.360;  -17.141;  -10.965;  621.445
405.953;  -11.077;   -8.764;  759.034
406.545;  -11.516;   -7.514;  725.342
407.138;  -14.979;  -10.025;  618.350
407.731;  -14.504;  -10.034;  613.303
408.324;  -10.014;   -9.374;  660.554
408.917;  -11.471;   -6.534;  681.864
409.509;  -13.195;   -8.004;  740.396
410.102;  -14.726;   -9.875;  643.948
410.695;   -8.787;   -8.604;  665.758
411.287;   -9.995;   -6.794;  599.821
411.880;  -11.363;   -9.334;  585.421
412.472;  -14.429;  -10.254;  613.092
413.065;  -10.988;   -6.714;  629.408
413.657;   -9.867;   -7.234;  576.678
414.250;   -9.103;  -10.544;  646.681
414.842;  -10.870;   -9.744;  676.353
415.434;   -8.005;   -6.994;  570.463
416.027;   -5.052;   -5.893;  652.196
416.619;   -7.106;   -7.264;  713.400
417.211;   -7.550;  -10.374;  599.352
417.804;   -3.529;   -7.993;  628.499
418.396;   -8.252;   -7.234;  607.643
418.988;   -5.788;   -9.443;  659.238
419.580;   -8.450;  -10.724;  568.276
420.172;   -6.574;  -10.323;  536.196
420.764;   -2.007;   -8.793;  672.482
421.356;   -3.357;  -11.143;  636.898
421.948;   -4.951;   -8.293;  677.661
422.540;   -0.620;   -7.893;  680.027
423.132;   -0.395;   -7.082;  600.641
423.724;   -3.339;   -8.653;  561.267
424.316;   -1.871;  -10.213;  621.345
424.908;    2.068;   -9.762;  591.517
425.500;    2.215;   -5.572;  647.978
426.092;    2.961;   -8.422;  648.268
426.683;    2.011;   -9.283;  684.836
427.275;    4.410;   -7.852;  641.471
427.867;    6.122;   -5.272;  668.948
428.458;    6.643;   -7.682;  732.344
429.050;    5.899;  -10.612;  680.749
429.642;    8.345;   -9.882;  743.124
430.233;    8.096;   -6.962;  569.356
430.825;    9.176;   -6.842;  724.809
431.416;    6.510;   -9.672;  698.241
432.008;    9.555;   -6.552;  651.723
432.599;   10.513;   -6.891;  656.073
433.190;    7.875;  -10.912;  637.670
433.782;    7.430;  -11.172;  590.395
434.373;   13.974;   -6.061;  884.765
434.964;   13.678;   -8.251;  602.920
435.556;   10.456;   -9.722;  634.537
436.147;   15.173;   -9.082;  758.490
436.738;   14.226;   -8.041;  701.099
437.329;   18.922;   -7.341;  721.723
437.920;   12.369;   -8.162;  666.688
438.511;   12.235;  -11.802;  564.526
439.103;   18.155;  -10.191;  623.998
439.694;   19.638;   -7.601;  681.583
440.285;   20.670;   -8.541;  764.432
440.876;   19.810;   -9.751;  845.738
441.466;   18.843;   -9.401;  575.162
442.057;   23.621;   -7.760;  665.814
442.648;   22.221;   -9.971;  746.255
443.239;   21.084;  -11.001;  620.477
443.830;   25.564;   -7.990;  704.958
444.421;   27.160;   -7.910;  655.474
445.011;   23.632;   -8.131;  693.619
445.602;   24.066;   -7.111;  743.126
446.193;   25.688;  -10.920;  488.117
446.783;   30.150;   -6.500;  640.397
447.374;   25.486;   -8.671;  692.759
447.964;   26.778;  -10.781;  713.770
448.555;   34.755;   -9.650;  822.742
449.145;   31.079;   -8.660;  662.853
449.736;   31.166;   -8.990;  803.179
450.326;   31.920;   -9.500;  713.626
450.917;   36.953;   -8.680;  675.324
451.507;   35.690;   -7.520;  600.661
452.097;   36.373;   -8.590;  746.267
452.688;   37.781;  -11.340;  742.160
453.278;   37.579;  -10.100;  566.840
453.868;   41.515;   -6.019;  793.550
454.458;   39.482;   -9.440;  651.141
455.048;   40.596;  -10.560;  711.783
455.639;   41.566;  -11.799;  567.096
456.229;   44.226;   -6.899;  710.694
456.819;   46.253;   -7.389;  751.158
457.409;   46.898;  -11.119;  773.993
457.999;   50.326;   -9.289;  737.505
458.589;   49.148;   -6.139;  686.606
459.179;   48.769;   -8.729;  717.658
459.769;   47.156;   -9.789;  627.099
460.358;   52.328;  -10.259;  797.262
460.948;   52.896;   -7.299;  689.503
461.538;   53.843;  -10.289;  660.677
462.128;   52.310;  -11.269;  664.934
462.717;   58.842;   -9.368;  710.326
463.307;   61.288;   -7.908;  705.846
463.897;   56.750;   -9.599;  656.942
464.486;   56.519;   -9.769;  837.128
465.076;   61.594;   -8.048;  733.776
465.666;   64.615;   -9.358;  652.900
466.255;   62.795;   -7.919;  785.651
466.845;   61.423;  -11.689;  666.749
467.434;   64.182;   -7.818;  725.873
468.023;   65.117;   -7.678;  658.357
468.613;   62.718;  -10.939;  713.946
469.202;   68.116;  -10.118;  646.507
469.791;   71.509;   -9.108;  737.811
470.381;   73.320;   -6.058;  742.813
470.970;   72.628;  -10.428;  711.099
471.559;   72.963;  -10.268;  733.291
472.148;   75.691;   -8.448;  675.737
472.738;   78.089;   -6.917;  765.466
473.327;   77.967;  -11.978;  637.529
473.916;   77.626;  -11.888;  737.446
474.505;   81.751;   -9.437;  751.703
475.094;   84.604;   -6.747;  806.570
475.683;   84.218;   -9.367;  797.699
476.272;   85.222;  -12.637;  730.632
476.861;   87.802;  -10.027;  706.754
477.449;   94.628;   -8.716;  728.487
478.038;   88.560;   -9.577;  692.513
478.627;   89.539;   -9.718;  714.852
479.216;   96.456;   -8.947;  769.441
479.805;   98.903;   -6.256;  783.375
480.393;   98.966;   -7.937; 1008.945
480.982;   98.229;   -7.717;  874.501
481.571;  104.341;   -9.266;  858.333
482.159;  104.525;   -7.636;  705.386
482.748;  104.375;   -9.667;  821.385
483.336;  108.526;  -10.376;  858.209
483.925;  110.310;   -7.147;  774.373
484.513;  116.095;   -7.996;  758.962
485.102;  113.287;  -10.027;  810.965
485.690;  121.340;  -10.446; 1011.050
486.278;  123.646;   -8.446;  979.329
486.867;  124.230;   -6.356;  809.662
487.455;  125.285;   -9.136;  898.229
488.043;  127.069;  -10.646;  748.361
488.631;  135.903;   -7.456; 1005.079
489.220;  139.348;   -6.636;  908.626
489.808;  139.120;  -11.036;  741.415
490.396;  147.161;  -10.246;  914.645
490.984;  152.769;   -8.556;  830.161
491.572;  161.797;   -5.886;  940.315
492.160;  167.350;   -9.486;  919.081
492.748;  179.287;  -10.976;  884.341
493.336;  202.092;   -8.776; 1019.693
493.924;  226.533;   -5.465;  958.077
494.512;  252.791;   -9.986; 1066.638
495.100;  288.824;  -10.636; 1103.280
495.687;  341.834;  -10.885; 1206.373
496.275;  401.172;   -8.126; 1150.796
496.863;  467.528;  -10.586; 1281.171
497.451;  565.290;  -11.926; 1386.805
498.038;  690.815;  -10.885; 1556.729
498.626;  792.071;   -6.315; 1741.407
499.214;  934.197;   -7.326; 2016.609
499.801; 1118.379;  -11.906; 2220.633
500.389; 1353.629;  -10.466; 2312.494
500.976; 1646.429;   -5.236; 2744.849
501.564; 2068.374;   -8.936; 3148.565
502.151; 2421.488;  -13.176; 3515.999
502.738; 2840.336;  -10.646; 3971.274
503.326; 3214.681;   -9.525; 4403.796
503.913; 3578.254;  -10.856; 5161.749
504.500; 3933.626;  -11.586; 5986.420
505.088; 4328.527;  -10.336; 6381.201
505.675; 4838.912;   -6.355; 6925.547
506.262; 5521.976;   -9.046; 7619.060
506.849; 6203.193;  -10.416; 8733.969
507.436; 6638.833;  -10.305; 9790.121
508.023; 7186.404;   -5.496; 9985.472
508.610; 7468.008;   -7.856;10434.618
509.197; 8105.296;  -10.097;11198.435
509.784; 9418.721;  -10.886;12391.194
510.371;10450.734;   -9.315;13603.713
510.958;11197.910;   -9.936;14426.586
511.545;11947.969;   -9.326;15243.775
512.132;12759.848;  -10.075;15945.876
512.719;13245.274;   -7.796;16340.369
513.305;14143.980;  -10.606;18011.766
513.892;14816.836;  -11.486;19754.971
514.479;16116.532;   -9.126;20967.805
515.066;17710.814;   -6.026;22299.793
515.652;19017.268;   -8.466;22908.660
516.239;20298.174;  -10.886;23798.875
516.825;21337.762;  -11.496;25567.275
517.412;22276.699;   -5.796;28154.959
517.998;22770.359;  -10.506;28344.111
518.585;22917.041;  -10.076;27134.219
519.171;23538.266;   -8.315;27268.576
519.758;24856.438;   -8.596;28964.129
520.344;26719.451;   -8.466;30664.494
520.930;26929.688;  -11.006;32550.605
521.516;28271.076;  -10.495;35422.895
522.103;30456.703;   -5.526;38280.004
522.689;30898.539;   -8.746;37835.117
523.275;30517.150;  -11.376;37288.613
523.861;31934.295;  -11.156;37281.395
524.447;33255.016;   -8.135;37846.949
525.033;33034.285;   -7.896;38321.949
525.619;33206.797;  -12.476;38579.285
526.205;34896.762;   -9.516;40622.875
526.791;37186.418;   -6.926;42258.836
527.377;37514.012;   -8.346;42966.902
527.963;38944.813;   -8.717;42018.949
528.549;37409.863;  -11.016;42476.828
529.135;36227.680;   -8.536;41854.852
529.721;35640.184;   -9.666;41237.711
530.306;34930.809;  -10.066;41259.445
530.892;34738.758;  -11.356;41506.047
531.478;36226.707;   -6.596;43559.613
532.063;39165.645;   -8.836;47695.563
532.649;39655.320;  -10.047;50808.324
533.235;40536.313;   -9.746;51787.500
533.820;41079.891;   -6.566;52145.035
534.406;42615.273;  -10.817;51133.488
534.991;42410.105;   -9.416;49996.805
535.576;40936.332;   -9.036;48882.852
536.162;41449.016;   -6.156;46942.285
536.747;42245.430;  -11.607;45711.746
537.333;45952.156;  -11.787;48510.180
537.918;49003.422;  -12.437;50439.891
538.503;47702.180;   -7.196;50863.711
539.088;44301.711;  -10.556;50906.922
539.673;44007.996;   -8.767;52621.965
540.259;44049.273;  -10.026;52368.094
540.844;41682.680;   -7.416;50879.109
541.429;42989.180;   -9.467;52077.777
542.014;45607.270;   -9.527;52716.695
542.599;45003.883;   -9.946;52363.281
543.184;42940.066;   -7.927;53187.137
543.769;44280.156;   -9.297;54697.605
544.354;43661.426;  -10.127;53913.914
544.938;42356.105;   -9.267;49680.164
545.523;44279.785;   -6.506;47386.277
546.108;47051.785;   -9.787;49151.949
546.693;49054.746;  -11.587;51384.637
547.278;48525.992;  -10.986;51853.254
547.862;45762.391;   -8.206;51173.750
548.447;41601.730;  -10.067;51691.395
549.031;41073.914;   -9.637;52456.703
549.616;45848.520;   -9.926;52714.516
550.201;45256.395;   -6.347;52414.598
550.785;46399.160;   -7.917;52355.059
551.370;45432.637;  -10.867;54589.453
551.954;44762.445;   -9.047;58267.348
552.538;45636.926;   -7.827;59062.176
553.123;44145.141;  -10.287;58115.285
553.707;41925.188;  -12.178;56556.285
554.291;43068.707;   -8.717;56201.668
554.876;45214.961;   -7.457;55335.762
555.460;45420.922;  -10.387;54155.703
556.044;46553.184;   -9.618;53721.484
556.628;45385.363;  -11.567;53731.016
557.212;44230.008;   -8.097;54312.531
557.796;42806.262;  -11.077;53797.773
558.380;42836.074;  -11.108;56145.984
558.964;43103.223;   -9.057;57277.930
559.548;44324.438;   -6.977;56459.641
560.132;42693.359;  -11.457;54434.543
560.716;41254.297;  -11.378;54800.617
561.300;42165.945;   -9.577;57606.945
561.884;43240.980;   -7.127;58972.445
562.467;41792.281;   -7.118;57327.570
563.051;41324.949;  -13.358;54962.434
563.635;42405.063;  -10.178;52594.473
564.219;42358.836;   -7.837;50610.410
564.802;43133.191;  -11.398;49551.180
565.386;43131.117;  -12.788;48370.953
565.969;42471.570;   -9.077;48178.871
566.553;41675.492;   -6.207;49957.305
567.136;42178.648;   -8.568;50369.594
567.720;38811.543;  -11.868;49492.004
568.303;36709.395;   -8.268;50616.352
568.887;36798.469;   -8.698;50727.148
569.470;37059.816;   -6.808;51698.379
570.053;35746.859;  -13.188;52122.078
570.637;34281.406;  -12.037;52536.438
571.220;34169.320;   -8.577;51186.098
571.803;34911.684;   -8.498;51032.762
572.386;37035.285;  -10.498;49609.887
572.969;39317.949;   -9.388;48285.926
573.552;37449.305;   -8.338;47624.285
574.135;36102.402;   -8.518;45498.641
574.718;33735.738;  -13.628;41970.434
575.301;32824.914;  -10.893;41447.137
575.884;31914.088;   -8.158;40923.836
576.467;33037.965;  -10.328;45267.723
577.050;34596.914;  -13.058;48175.543
577.633;35747.711;   -9.458;47729.328
578.216;34575.098;   -8.928;47579.793
578.799;33274.809;   -9.358;47820.996
579.381;31968.256;  -11.388;48115.551
579.964;30461.082;  -11.718;47333.766
580.547;32620.795;   -8.588;46668.969
581.129;34237.094;   -8.859;44466.141
581.712;35225.027;  -10.729;44164.922
582.294;35761.234;  -11.118;46477.855
582.877;35589.441;   -5.218;48244.254
583.459;33153.961;   -8.679;47437.895
584.042;31225.023;  -10.709;46943.219
584.624;31689.186;  -11.669;46792.227
585.206;30992.566;   -8.218;46557.250
585.789;30617.867;  -10.569;45793.773
586.371;32840.199;  -11.859;43836.391
586.953;32613.477;  -10.719;42972.492
587.536;32210.250;   -7.198;42487.211
588.118;30311.141;   -8.720;42086.414
588.700;26334.779;  -10.439;43389.930
589.282;27041.920;   -9.198;43646.039
589.864;30582.984;   -9.199;43438.109
590.446;33456.910;  -11.319;43151.926
591.028;34306.871;  -11.159;42781.867
591.610;33554.996;  -11.779;42839.098
592.192;31016.061;   -7.668;42820.402
592.774;29467.490;  -11.949;40724.277
593.356;28174.959;  -12.129;39874.789
593.937;27081.816;  -10.669;39980.648
594.519;29049.750;   -6.509;42069.633
595.101;31225.072;  -10.849;42976.031
595.683;31316.805;  -11.679;44084.441
596.264;32418.791;   -9.049;43478.797
596.846;31994.021;   -8.849;43803.672
597.427;31877.984;   -9.570;42986.934
598.009;33467.746;  -12.620;42832.219
598.591;33901.133;  -10.039;42580.086
599.172;33130.809;  -10.369;43061.805
599.753;33341.992;   -9.140;41691.469
600.335;34846.637;  -11.430;40692.520
600.916;33047.758;   -9.939;39982.422
601.498;30441.771;   -8.479;40318.617
602.079;28915.217;  -10.920;40670.609
602.660;28762.945;  -11.480;41450.898
603.241;30411.189;  -11.699;41137.738
603.823;29296.422;   -9.579;38868.797
604.404;28698.176;  -10.620;38182.785
604.985;30318.670;  -10.450;38078.047
605.566;30292.135;   -9.129;38056.633
606.147;30399.473;   -7.510;37020.418
606.728;31888.324;  -10.660;37883.359
607.309;30615.822;  -11.740;38748.273
607.890;30127.217;   -9.759;38850.230
608.471;29583.328;   -8.250;37457.918
609.051;28667.445;   -9.240;36066.457
609.632;27644.895;  -12.120;35991.074
610.213;28364.582;   -9.110;37402.641
610.794;29019.029;   -8.030;38383.363
611.374;28561.863;   -8.110;40562.387
611.955;29045.504;  -13.560;38533.727
612.536;30381.838;  -11.400;36951.789
613.116;30375.014;   -8.070;37197.891
613.697;30791.365;  -10.830;38411.125
614.277;29200.670;  -11.641;38673.938
614.858;30003.426;  -13.310;37075.863
615.438;29130.793;   -7.460;35092.906
616.019;26560.357;   -7.601;33666.301
616.599;27321.703;  -12.020;34189.023
617.179;29061.309;  -11.780;36952.047
617.760;29954.854;   -8.570;39582.574
618.340;31090.098;  -11.471;38943.977
618.920;32398.547;  -11.170;37594.156
619.500;32156.041;  -11.071;37866.938
620.080;31201.205;   -7.750;37869.043
620.660;32277.568;  -12.711;36868.617
621.241;33612.523;  -10.211;36352.309
621.821;33861.266;  -10.961;35459.520
622.401;32913.000;   -7.720;35207.414
622.980;32250.471;   -8.981;35980.422
623.560;30832.701;   -9.331;37351.328
624.140;29506.160;   -9.850;34388.582
624.720;24473.877;   -7.451;32368.764
625.300;21009.982;   -9.070;32638.629
625.880;24402.475;  -12.601;34599.035
626.459;28305.357;  -11.751;36831.738
627.039;31319.447;   -9.281;38299.098
627.619;31324.672;   -8.801;38289.574
628.198;29777.869;  -12.071;37220.695
628.778;29024.834;   -9.461;37632.563
629.357;29782.094;   -8.491;38003.012
629.937;29782.434;   -9.721;38402.039
630.516;29159.875;   -9.951;37868.801
631.096;28823.916;  -11.731;35760.410
631.675;31222.576;   -8.572;35225.219
632.254;36251.223;  -11.282;35130.289
632.834;35853.410;  -13.322;35794.570
633.413;34136.941;  -10.301;35788.922
633.992;31486.041;   -8.582;34532.863
634.571;32148.348;   -8.352;33590.113
635.151;35211.078;  -11.912;34943.863
635.730;33623.465;  -10.511;35352.523
636.309;30064.795;   -7.731;35366.605
636.888;27515.963;   -9.952;36165.637
637.467;28247.723;  -11.672;37515.902
638.046;29902.078;   -8.901;39288.695
638.625;32917.418;   -7.912;38279.699
639.204;32751.268;  -10.022;37741.598
639.782;31264.250;  -12.252;38364.551
640.361;27728.375;  -10.041;36740.621
640.940;24918.018;  -11.161;34950.082
641.519;25574.271;   -9.701;34137.398
642.097;28539.436;  -11.271;35654.258
642.676;31488.063;   -8.651;35637.957
643.255;32116.402;   -8.711;36567.074
643.833;31235.814;   -9.581;37809.434
644.412;31177.531;  -13.711;37337.293
644.990;30263.627;  -11.811;37018.531
645.569;30169.723;   -9.411;36518.469
646.147;29054.520;  -10.291;36186.430
646.726;28824.057;  -12.401;36267.688
647.304;30210.697;  -10.411;36647.625
647.882;32048.660;   -9.651;39286.742
648.461;33664.238;   -9.631;39157.703
649.039;31928.326;  -11.881;35412.883
649.617;31422.375;   -9.661;34744.918
650.195;31207.658;   -9.301;35403.098
650.773;29771.699;  -10.511;35053.797
651.352;27207.486;  -11.521;33756.816
651.930;24743.139;  -12.211;31868.773
652.508;23205.967;   -9.171;33121.551
653.086;27107.887;   -9.371;33564.793
653.663;30048.555;  -13.161;34054.668
654.241;28759.346;  -13.031;35693.309
654.819;30355.166;   -9.371;36422.906
655.397;30666.719;  -10.511;38213.484
655.975;30350.686;  -10.371;39507.625
656.553;30142.902;  -10.051;39498.223
657.130;28616.342;  -10.061;40395.480
657.708;27805.064;   -9.561;39242.020
658.286;27825.598;  -11.511;38920.020
658.863;29183.082;  -10.261;40202.898
659.441;32189.652;   -7.531;39677.938
660.018;31744.422;   -9.501;40413.355
660.596;30643.734;  -13.301;39931.414
661.173;32716.939;  -11.211;39604.531
661.750;32819.207;   -9.951;39700.070
662.328;31314.328;   -9.390;39292.809
662.905;30288.287;  -11.330;38235.648
663.482;26236.576;   -9.050;36212.305
664.060;24307.049;   -8.240;35944.945
664.637;27050.203;  -10.050;35170.785
665.214;28911.865;  -11.760;34197.523
665.791;30388.307;  -10.530;34549.520
666.368;29323.023;   -9.690;35118.578
666.945;30001.430;   -9.320;36019.418
667.522;31658.021;  -11.860;36048.438
668.099;31293.176;  -10.770;36243.914
668.676;30145.980;   -6.260;35958.875
669.253;28897.434;   -7.000;37384.730
669.830;29592.092;  -10.190;36779.629
670.407;29328.625;   -9.550;35231.289
670.984;29075.010;   -9.260;35544.270
671.560;29743.426;   -9.280;35466.867
672.137;29037.434;  -11.810;34280.863
672.714;29804.721;  -11.490;34632.863
673.290;30451.045;   -7.740;35135.422
673.867;30575.654;  -10.660;36114.480
674.443;30557.057;  -12.230;36152.859
675.020;28886.531;  -10.450;35327.238
675.596;29884.803;   -9.260;35795.176
676.173;30254.252;  -10.780;35430.355
676.749;29937.967;  -13.690;33549.516
677.326;29919.557;  -11.980;32210.012
677.902;29911.607;   -8.630;32068.871
678.478;29272.881;  -10.730;32583.891
679.054;28644.555;  -10.520;32088.928
679.631;28934.154;  -11.920;30978.848
680.207;30650.406;   -7.490;33160.887
680.783;32423.764;   -9.860;35570.363
681.359;31519.211;  -13.380;36125.184
681.935;30790.434;  -12.480;35240.922
682.511;29927.242;   -7.900;34429.961
683.087;29896.068;   -7.710;34463.680
683.663;29436.752;  -11.480;34648.898
684.239;28298.133;  -14.090;34546.457
684.815;27981.879;   -7.560;35586.375
685.390;28339.088;   -9.910;35821.895
685.966;28947.670;  -11.159;35085.871
686.542;31437.688;  -11.169;34198.230
687.118;33494.039;   -5.959;32847.707
687.693;33701.813;  -10.329;32794.027
688.269;33486.844;  -12.059;33072.367
688.844;31833.082;  -10.909;33141.664
689.420;29689.641;   -8.019;33965.742
689.995;27324.957;   -8.399;34655.523
690.571;25846.002;  -10.949;33576.742
691.146;26224.984;   -9.619;32657.219
691.722;25696.631;   -8.999;32526.979
692.297;25498.369;  -11.589;33014.617
692.872;27381.354;  -11.739;34012.254
693.448;27034.895;  -11.059;34237.434
694.023;26179.303;  -10.139;34142.672
694.598;28035.227;   -9.029;34132.031
695.173;28421.521;  -13.319;34205.250
695.748;27797.807;  -10.169;32882.488
696.323;28090.727;   -8.339;32864.906
696.898;28429.875;   -8.169;33170.004
697.473;28159.686;  -12.309;32432.984
698.048;27500.336;  -10.989;31649.303
698.623;27360.859;   -9.329;30778.141
699.198;29321.469;   -9.849;31140.119
699.773;30221.578;  -12.329;31764.299
700.348;28440.498;  -10.389;31780.816
700.922;28405.359;   -9.269;32046.375
701.497;29326.117;   -9.329;32603.574
702.072;29648.172;  -10.789;34799.871
702.646;28314.516;  -10.839;35793.172
703.221;26087.762;   -9.099;35201.590
703.795;28340.361;  -10.939;34764.527
704.370;28837.148;  -12.859;34307.367
704.944;29185.523;  -11.559;33509.887
705.519;30022.322;   -7.939;31388.584
706.093;31490.879;  -10.499;31340.104
706.668;31855.455;  -11.289;32630.281
707.242;30751.695;  -11.509;32728.779
707.816;29085.023;   -9.639;32947.238
708.390;27517.932;  -11.429;33277.855
708.965;27917.963;  -11.869;33834.336
709.539;27746.668;  -11.689;33709.273
710.113;28318.926;  -10.478;33044.313
710.687;27994.631;  -10.228;31953.992
711.261;26397.811;  -13.698;30505.949
711.835;26244.008;  -13.378;30262.369
712.409;26985.996;   -9.698;31254.447
712.983;28892.178;  -11.898;32754.986
713.557;29891.301;  -15.138;34018.824
714.131;29423.355;  -14.098;34579.625
714.704;28347.197;   -9.958;33890.262
715.278;26091.459;  -10.028;33531.102
715.852;25104.090;  -11.148;33601.660
716.425;25935.480;   -9.068;33515.117
716.999;26626.199;  -10.038;33185.555
717.573;27575.115;   -9.798;33905.996
718.146;28761.213;  -12.378;35199.293
718.720;28815.809;  -11.918;35060.551
719.293;28196.646;   -8.088;34973.230
719.867;31026.932;  -10.888;36394.449
720.440;30907.984;  -11.938;36663.008
721.013;29241.938;  -12.818;35102.426
721.587;27864.113;  -10.298;33985.266
722.160;26891.455;  -10.048;33524.965
722.733;25789.240;  -12.108;32987.043
723.306;26038.762;  -10.818;33066.301
723.880;28475.504;   -8.908;33399.500
724.453;30523.920;   -9.878;33468.297
725.026;29631.186;  -11.188;33816.637
725.599;26891.686;  -11.678;32797.996
726.172;27141.793;   -9.618;33187.434
726.745;28169.408;   -8.258;35136.613
727.318;29416.174;  -12.978;35751.730
727.891;30007.396;  -12.148;35890.430
728.463;29810.775;   -8.968;34822.090
729.036;28835.588;  -10.188;32895.086
729.609;29211.115;  -11.788;31823.225
730.182;26180.832;  -11.788;31445.283
730.754;23636.033;  -10.268;32373.223
731.327;23567.137;   -9.998;33676.820
731.900;23854.705;  -12.228;33417.000
732.472;25282.268;  -13.848;31978.498
733.045;27291.500;   -8.698;30368.777
733.617;27410.580;  -10.607;30574.215
734.190;27098.795;  -11.507;31280.975
734.762;24329.254;  -13.647;31674.412
735.334;22484.586;   -9.767;31247.291
735.907;22996.395;   -9.897;29876.211
736.479;23166.092;  -11.637;29808.488
737.051;22855.131;   -9.567;30233.547
737.623;23730.537;   -8.187;31469.086
738.195;24436.463;  -11.187;31784.225
738.768;26318.027;  -12.337;32120.523
739.340;26631.020;  -12.227;32094.342
739.912;25473.520;  -11.057;31312.680
740.484;23987.863;  -10.207;31946.238
741.056;22846.727;  -10.047;32984.059
741.628;24705.340;  -13.627;33897.715
742.199;26901.104;   -7.177;33213.016
742.771;25168.924;  -10.797;31369.113
743.343;22900.500;  -11.997;31865.473
743.915;21941.873;  -12.867;32388.631
744.487;22072.508;   -7.617;31079.568
745.058;22308.686;   -9.557;30570.107
745.630;22831.393;   -9.877;29970.127
746.201;23719.967;  -14.177;29186.766
746.773;24169.410;   -9.237;28805.723
747.344;23925.623;   -9.847;29591.223
747.916;22488.809;  -11.657;31412.201
748.487;22605.510;  -10.587;32194.898
749.059;23696.035;   -8.707;32533.719
749.630;24348.607;  -10.537;32158.518
750.201;23408.752;  -11.687;30855.395
750.773;21637.885;  -11.647;28622.555
751.344;21603.432;   -7.147;28405.732
751.915;22969.193;   -9.757;28461.551
752.486;23048.404;  -12.427;27842.850
753.057;20743.166;  -12.227;27845.008
753.628;19454.518;  -10.417;27728.107
754.199;20575.576;  -11.767;27381.086
754.770;21543.805;  -11.187;25882.203
755.341;21513.381;  -10.507;25886.184
755.912;21596.943;   -9.387;26050.861
756.483;21072.156;  -10.647;26798.779
757.054;19357.891;  -11.837;27048.238
757.625;18042.686;  -12.716;26294.838
758.195;17706.939;   -9.666;26142.076
758.766;17408.217;   -8.656;26392.234
759.337;18178.898;  -12.856;26334.594
759.907;19867.746;  -13.366;27579.652
760.478;20772.189;   -8.576;28352.770
761.048;20232.443;  -10.526;27325.088
761.619;19446.248;  -11.116;26460.428
762.189;19476.797;  -12.136;26029.826
762.760;20519.396;   -9.456;26430.145
763.330;21690.078;   -7.136;26670.902
763.900;21173.156;  -11.786;26603.021
764.471;18568.500;  -11.546;25542.740
765.041;17370.307;   -8.096;24358.459
765.611;17479.775;   -8.876;23991.297
766.181;17835.379;  -12.196;24470.236
766.751;18719.232;  -11.636;24845.975
767.321;18517.258;  -10.156;24533.633
767.891;16663.951;  -11.766;24916.492
768.461;16136.398;  -14.936;24776.771
769.031;16613.658;  -12.356;24757.988
769.601;18208.512;   -7.526;24181.088
770.171;18049.227;  -10.766;23670.387
770.741;17141.242;  -13.176;22960.045
771.311;17268.676;  -10.616;22917.523
771.880;17666.359;   -9.576;23562.941
772.450;17335.248;  -10.336;24216.500
773.020;17353.014;  -13.516;24140.398
773.589;16752.779;  -13.466;24414.857
774.159;16105.942;   -8.686;23858.717
774.729;15684.031;   -9.476;22942.135
775.298;15191.085;  -13.666;22324.033
775.867;14795.949;  -11.716;21140.313
776.437;14934.458;   -9.906;20838.092
777.006;14775.920;  -12.166;20599.510
777.576;14669.669;  -12.356;20508.809
778.145;14729.597;  -11.646;20732.947
778.714;14580.350;   -8.226;21062.465
779.283;13788.811;   -9.556;20949.664
779.853;13251.053;  -14.116;20508.623
780.422;13712.218;  -11.506;20649.082
780.991;13308.564;   -9.556;21527.520
781.560;12165.597;   -9.095;22632.658
782.129;12071.032;  -12.135;23048.277
782.698;12124.668;  -10.865;23438.555
783.267;11675.004;   -9.335;23267.734
783.836;11592.082;  -11.045;22415.133
784.404;12708.182;  -13.865;20443.152
784.973;13349.057;  -13.095;19699.150
785.542;13217.678;  -11.575;19763.828
786.111;12961.323;   -9.705;20341.408
786.679;12431.747;  -12.105;20207.967
787.248;12178.036;  -12.455;19516.465
787.817;12057.570;  -11.535;18900.363
788.385;11730.459;   -9.765;17879.121
788.954;11172.328;  -14.005;17658.301
789.522;10618.827;  -11.955;17788.879
790.090;11155.649;  -10.135;18118.277
790.659;11573.515;  -10.975;18338.736
791.227;11072.235;  -13.375;18508.615
791.795;11515.196;  -12.375;17898.254
792.364;11954.739;  -10.725;17295.133
792.932;12332.165;   -9.715;16822.051
793.500;12460.028;  -12.675;17040.148
794.068;12622.005;  -13.495;17179.787
794.636;12757.063;  -10.885;16664.246
795.204;12152.493;  -11.045;16524.545
795.772;12261.354;  -13.175;17274.564
796.340;11813.670;  -12.445;17891.002
796.908;11632.821;   -9.735;17648.561
797.476;11517.115;   -9.815;17064.080
798.044;11041.567;  -13.985;16672.777
798.612;10208.213;  -13.115;17023.996
799.180; 9787.910;  -10.185;16561.615
799.747; 9696.211;   -9.055;15962.773
800.315; 9452.546;  -12.385;15296.992
800.883; 9133.836;  -15.035;14801.771
801.450; 9157.875;  -10.365;14534.430
802.018; 9255.392;   -9.855;14173.248
802.585; 9413.292;  -11.905;14029.547
803.153; 9452.046;  -11.585;13836.846
803.720; 9252.557;   -9.095;13567.324
804.287; 8814.039;   -9.135;13360.622
804.855; 8374.179;  -11.604;13681.981
805.422; 8228.704;  -11.794;13536.560
805.989; 8248.645;  -10.734;13355.958
806.556; 8420.059;  -10.444;13747.896
807.124; 8645.944;  -12.764;13987.376
807.691; 8612.859;  -12.964;14038.674
808.258; 8437.032;  -11.134;14120.152
808.825; 8121.731;   -9.854;13860.111
809.392; 8168.183;  -10.504;13268.790
809.959; 7657.602;  -13.054;12680.389
810.526; 7211.192;   -8.294;12427.308
811.093; 7256.564;   -8.394;12030.105
811.659; 7881.049;  -12.304;11653.664
812.226; 8416.790;  -13.944;11637.183
812.793; 8137.524;  -10.484;11611.521
813.360; 7524.904;  -10.144;11885.181
813.926; 7218.356;  -11.684;12770.539
814.493; 6976.401;  -13.644;12677.638
815.060; 6556.694;   -9.724;11974.336
815.626; 6527.142;   -9.854;11594.715
816.193; 6936.492;  -13.254;11579.474
816.759; 6971.570;  -13.204;11666.972
817.325; 7036.263;   -9.434;11325.530
817.892; 7373.032;  -10.134;11105.369
818.458; 7804.942;  -13.474;10843.928
819.024; 7412.094;  -11.854;10714.406
819.591; 7013.467;  -10.244;10469.165
820.157; 6755.070;  -10.704;10235.523
820.723; 6251.991;  -12.324;10847.563
821.289; 5938.435;   -9.444;11040.980
821.855; 5867.550;   -8.374;10357.100
822.421; 5865.564;  -10.234; 9978.918
822.987; 5887.813;  -13.294; 9754.177
823.553; 5583.704;  -10.884;10065.755
824.119; 5394.012;   -8.884;10036.294
824.685; 5472.599;   -6.784;10029.192
825.251; 5564.447;  -12.004;10199.230
825.816; 5520.496;  -11.474; 9820.189
826.382; 5283.960;   -9.174; 9297.248
826.948; 5476.714;   -9.214; 9381.347
827.513; 5885.801;  -10.774; 9450.726
828.079; 5717.988;  -11.924; 9472.444
828.645; 5121.749;  -10.543; 9292.643
829.210; 5009.724;  -10.533; 9065.341
829.776; 4995.955;  -10.753; 9132.620
830.341; 4883.472;  -10.173; 9092.878
830.906; 5066.617;  -10.743; 9078.557
831.472; 5406.667;  -11.113; 8534.535
832.037; 5152.509;  -10.603; 8677.874
832.602; 4619.495;  -13.323; 8628.692
833.167; 4378.293;  -10.823; 8879.031
833.733; 4323.669;  -10.113; 9189.790
834.298; 4456.829;  -13.583; 9052.608
834.863; 4527.966;  -12.703; 8895.087
835.428; 4503.664;  -10.523; 8824.266
835.993; 4361.146;   -6.963; 8845.385
836.558; 4191.900;  -10.763; 8888.563
837.123; 4303.338;   -9.903; 8966.582
837.688; 4507.241;   -9.913; 8617.860
838.253; 4735.721;  -10.283; 8590.699
838.817; 4928.557;  -12.963; 8443.797
839.382; 4840.856;  -14.243; 8799.356
839.947; 4528.168;  -10.733; 8810.595
840.511; 4255.391;   -9.383; 8796.394
841.076; 3897.622;  -12.563; 8347.231
841.641; 3954.492;  -12.953; 8224.330
842.205; 4059.946;   -7.043; 8223.349
842.770; 4163.709;   -8.163; 8622.107
843.334; 4329.102;  -12.503; 8410.386
843.898; 4262.425;  -11.693; 8337.465
844.463; 4274.193;  -10.203; 8506.283
845.027; 4059.085;   -9.533; 8280.962
845.591; 3881.199;  -13.443; 8231.141
846.156; 3869.824;  -13.143; 7969.179
846.720; 3748.104;   -9.433; 7768.278
847.284; 3622.513;  -11.033; 7630.957
847.848; 3504.035;  -10.403; 7472.395
848.412; 3427.806;  -11.553; 7437.394
848.976; 3487.289;   -8.393; 7674.592
849.540; 3420.558;   -8.713; 7836.011
850.104; 3536.609;  -12.463; 7913.669
850.668; 3906.238;  -12.973; 7694.508
851.232; 4005.728;  -10.793; 7756.887
851.796; 3834.408;  -10.662; 7926.545
852.359; 3535.874;  -13.082; 7827.844
852.923; 3367.408;  -12.192; 7641.163
853.487; 3178.759;  -11.912; 7342.501
854.050; 3131.829;  -10.892; 7042.820
854.614; 3289.484;  -13.992; 7151.338
855.177; 3434.871;  -11.732; 7105.077
855.741; 3478.466;   -8.962; 6989.675
856.304; 3363.160;   -9.442; 6596.634
856.868; 3303.482;  -14.192; 6356.272
857.431; 3395.469;  -12.702; 6468.571
857.995; 3512.275;   -9.942; 6373.210
858.558; 3529.871;   -9.112; 6324.448
859.121; 3248.798;  -12.932; 6408.327
859.684; 3115.711;  -13.442; 6347.886
860.247; 3230.627;  -10.632; 6321.264
860.810; 3232.260;  -11.272; 6301.903
861.374; 2977.197;   -9.832; 6607.881
861.937; 2724.748;  -11.762; 6408.200
862.500; 2720.735;   -9.722; 6572.639
863.062; 2911.296;  -10.512; 6387.297
863.625; 3092.940;  -11.232; 6190.836
864.188; 3246.845;  -14.112; 5807.254
864.751; 3295.728;  -11.302; 5682.413
865.314; 3176.075;  -10.112; 5547.492
865.876; 2957.911;  -12.182; 5500.150
866.439; 2938.497;  -10.722; 5415.909
867.002; 2894.441;   -9.252; 5501.567
867.564; 2688.762;   -9.572; 5413.946
868.127; 2462.622;  -13.142; 5160.325
868.689; 2353.737;  -12.902; 5133.183
869.252; 2259.072;   -9.732; 5252.382
869.814; 2168.963;   -9.432; 5297.141
870.377; 2182.218;  -11.552; 5390.919
870.939; 2252.236;   -9.052; 5599.898
871.501; 2313.983;  -10.982; 5248.336
872.063; 2313.874;  -12.292; 4854.235
872.626; 2269.535;  -14.912; 4817.074
873.188; 2298.742;  -13.112; 4987.732
873.750; 2264.991;  -13.442; 4868.651
874.312; 2154.017;   -9.402; 4779.330
874.874; 2057.703;  -11.062; 4866.348
875.436; 1973.049;  -13.931; 4718.887
875.998; 1962.779;   -9.561; 4660.005
876.560; 1987.656;  -11.321; 4462.964
877.122; 1926.501;  -12.221; 4145.042
877.683; 1830.594;  -12.191; 4056.481
878.245; 1758.049;  -12.101; 3950.740
878.807; 1804.173;   -8.971; 4058.958
879.369; 1827.519;  -12.071; 3954.677
879.930; 1723.462;  -14.621; 3941.495
880.492; 1652.813;  -10.311; 4067.014
881.053; 1621.633;  -10.901; 3859.633
881.615; 1512.904;  -14.411; 3776.071
882.176; 1409.625;  -13.761; 3734.750
882.738; 1359.535;   -9.181; 3678.489
883.299; 1331.173;  -11.791; 3405.407
883.860; 1332.368;  -13.121; 3351.106
884.422; 1333.825;  -11.211; 3394.044
884.983; 1289.690;  -10.091; 3166.443
885.544; 1210.583;   -8.461; 3189.802
886.105; 1129.250;  -12.361; 3160.360
886.666; 1058.517;  -14.141; 3093.059
887.227;  997.386;  -11.361; 2941.957
887.788;  934.067;  -11.401; 2974.836
888.349;  869.771;  -13.791; 2721.214
888.910;  865.474;  -13.191; 2696.493
889.471;  874.080;   -9.881; 2560.172
890.032;  856.328;   -9.881; 2558.190
890.593;  831.653;  -10.371; 2567.669
891.153;  805.290;  -13.301; 2460.307
891.714;  753.895;  -11.431; 2372.046
892.275;  715.700;  -11.291; 2309.505
892.835;  677.162;  -11.471; 2382.543
893.396;  626.046;  -11.541; 2295.502
893.956;  570.025;  -11.181; 2162.420
894.517;  531.100;  -11.741; 2125.439
895.077;  524.449;  -11.671; 2086.978
895.638;  523.906;  -11.311; 2126.316
896.198;  495.088;   -9.831; 1838.275
896.758;  451.932;   -8.421; 1892.813
897.319;  419.912;  -12.351; 1792.232
897.879;  405.752;  -13.511; 1762.751
898.439;  377.627;  -12.001; 1661.149
898.999;  353.162;  -10.180; 1781.468
899.559;  346.133;  -12.030; 1703.347
900.119;  341.595;  -15.710; 1537.525
900.679;  336.820;   -8.900; 1638.384
901.239;  322.249;   -8.340; 1527.902
901.799;  311.409;  -13.910; 1456.441
902.359;  306.217;  -13.460; 1357.140
902.919;  299.970;  -11.490; 1331.118
903.479;  285.366;  -12.110; 1317.257
904.038;  264.506;  -11.720; 1262.595
904.598;  249.158;  -13.610; 1152.034
905.158;  245.085;  -11.040; 1240.893
905.717;  238.601;  -10.900; 1233.691
906.277;  227.090;  -15.080; 1217.330
906.836;  217.363;  -13.380; 1222.408
907.396;  209.663;  -10.780; 1193.047
907.955;  201.837;   -8.500; 1182.526
908.515;  194.514;  -12.760; 1099.364
909.074;  189.611;  -11.900; 1092.863
909.633;  183.592;   -8.950; 1069.121
910.192;  178.447;   -8.770; 1196.460
910.752;  173.180;  -12.390; 1029.960
911.311;  169.853;  -13.680; 1009.780
911.870;  166.584;  -12.370;  971.460
912.429;  167.923;  -10.900; 1094.080
912.988;  167.820;  -11.690; 1081.060
913.547;  162.277;  -13.240;  940.380
914.106;  157.233;  -11.990;  999.420
914.665;  153.706;   -9.990;  984.020
915.224;  152.896;  -12.880; 1035.760
915.782;  153.774;  -12.350;  922.560
916.341;  152.344;   -9.110; 1049.840
916.900;  148.247;   -9.270;  925.260
917.458;  146.775;  -13.240;  884.220
918.017;  146.492;  -13.550;  942.600
918.576;  146.395;  -12.320;  904.440
919.134;  144.243;  -11.490;  837.980
919.693;  141.675;  -13.670;  893.060
920.251;  140.667;  -15.470;  876.500
920.809;  138.822;  -11.290;  839.580
921.368;  138.105;  -10.210;  885.360
921.926;  137.754;  -12.140;  842.940
922.484;  136.772;  -13.080;  903.360
923.042;  136.633;  -11.720;  880.340
923.601;  138.275;   -7.480;  998.680
924.159;  136.752;  -11.570;  935.560
924.717;  134.130;  -13.840;  841.080
925.275;  134.208;  -10.640;  903.240
925.833;  133.718;  -11.540;  779.320
926.391;  134.905;  -12.960;  938.380
926.949;  133.015;  -14.130;  857.680
927.506;  134.014;  -11.750;  903.500
928.064;  134.314;  -10.250;  877.580
928.622;  132.949;  -13.030;  880.100
929.180;  133.718;  -13.400;  814.180
929.737;  134.022;  -10.700;  808.540
930.295;  137.741;  -10.070;  928.480
930.853;  139.733;  -11.960;  849.100
931.410;  140.241;  -13.120;  821.120
931.968;  139.810;  -10.770;  940.660
932.525;  139.603;  -10.680;  909.380
933.082;  139.448;  -13.130;  811.440
933.640;  141.669;  -13.210;  925.900
934.197;  138.958;  -11.060;  886.360
934.754;  139.599;   -9.580;  897.780
935.312;  142.983;  -14.000;  863.340
935.869;  147.584;  -10.710; 1012.980
936.426;  148.109;   -9.860;  872.800
936.983;  149.352;   -9.710;  889.020
937.540;  147.938;  -13.990;  838.280
938.097;  147.015;  -14.040;  940.120
938.654;  147.622;  -10.310;  898.860
939.211;  149.964;  -10.560;  952.480
939.768;  153.899;  -13.900;  915.420
940.324;  157.218;  -14.760;  904.200
940.881;  159.153;  -10.370;  878.500
941.438;  159.211;   -8.260; 1021.200
941.995;  156.109;  -12.540;  992.560
942.551;  153.651;  -14.670;  875.620
943.108;  153.290;  -10.450;  937.920
943.664;  155.970;  -10.750;  869.340
944.221;  159.032;  -11.550; 1088.140
944.777;  156.621;  -14.770;  869.680
945.334;  157.098;  -12.820;  884.840
945.890;  159.618;  -10.130;  946.480
946.446;  159.430;  -13.470;  947.020
947.003;  161.976;  -12.120;  964.940
947.559;  164.257;   -9.980; 1063.040
948.115;  162.785;   -9.080; 1026.540
948.671;  161.167;  -10.830;  967.300
949.227;  159.920;  -12.440;  859.560
949.783;  156.695;  -12.910;  858.900
950.339;  157.345;  -10.270;  991.000
950.895;  157.945;  -13.630; 1023.840
951.451;  157.199;  -15.100;  925.280
952.007;  158.143;  -11.330;  998.540
952.563;  158.515;  -10.580;  937.780
953.118;  157.764;  -13.440;  904.940
953.674;  157.809;  -12.710;  935.780
954.230;  156.946;  -10.350;  949.640
954.785;  154.663;   -9.190;  936.640
955.341;  152.530;  -11.200;  998.160
955.897;  150.976;  -16.560;  834.660
956.452;  151.406;  -12.570;  953.840
957.008;  151.062;   -7.970; 1083.640
957.563;  148.637;  -11.940; 1009.540
958.118;  143.993;  -13.450;  877.700
958.674;  144.372;  -12.030;  946.780
959.229;  145.393;   -9.410; 1013.980
959.784;  143.110;  -12.000;  832.400
960.339;  142.984;  -14.780; 1001.280
960.894;  139.238;   -9.860;  963.760
961.449;  135.876;   -9.970;  859.960
962.004;  135.139;  -10.900; 1212.840
962.559;  130.225;  -13.150;  860.140
963.114;  127.792;  -13.740;  742.480
963.669;  127.163;   -9.820;  915.500
964.224;  125.665;  -13.890;  874.340
964.779;  125.579;  -12.600;  828.420
965.334;  125.802;  -10.950; 1017.860
965.888;  125.943;  -11.170;  875.360
966.443;  128.098;  -12.540;  972.380
966.998;  128.960;  -15.780;  819.460
967.552;  128.366;   -9.760;  908.380
968.107;  123.689;   -9.060;  868.300
968.661;  125.256;  -11.950;  922.440
969.216;  126.257;  -12.800;  856.280
969.770;  126.126;  -11.210;  917.200
970.324;  125.312;  -11.610;  923.140
970.879;  121.451;  -11.370;  947.180
971.433;  118.179;  -12.540;  952.720
971.987;  112.724;  -11.320;  895.340
972.541;  110.263;  -10.720;  917.100
973.095;  110.204;   -9.680; 1009.460
973.649;  110.717;  -11.440;  809.480
974.203;  108.080;  -11.210;  829.040
974.757;  105.224;  -10.240;  855.220
975.311;   97.747;  -13.720;  872.600
975.865;   88.871;  -13.770;  881.820
976.419;   82.175;  -11.690;  857.400
976.973;   78.758;   -9.510;  849.620
977.526;   79.546;  -12.620;  949.920
978.080;   80.579;  -12.010;  796.780
978.634;   84.462;  -10.170;  921.320
979.187;   84.473;   -9.020;  905.400
979.741;   85.040;   -9.820; 1018.380
980.294;   82.058;  -14.870;  789.160
980.848;   80.799;  -12.380;  717.220
981.401;   83.138;  -10.350;  816.540
981.955;   86.080;  -13.720;  844.300
982.508;   85.999;  -11.490;  746.340
983.061;   87.133;  -10.000;  915.260
983.615;   83.404;  -11.480;  798.800
984.168;   80.925;  -13.220;  770.080
984.721;   80.745;  -13.960;  880.760
985.274;   80.108;  -10.870;  867.500
985.827;   79.478;   -9.790;  834.220
986.380;   76.854;  -13.120;  721.340
986.933;   77.477;  -12.450;  864.800
987.486;   76.113;  -10.210;  861.920
988.039;   74.460;   -8.430;  863.100
988.591;   73.552;  -10.520;  893.260
989.144;   71.244;  -14.860;  737.260
989.697;   70.294;  -13.080;  758.740
990.250;   70.707;  -10.150;  858.100
990.802;   70.335;  -13.430;  755.860
991.355;   71.424;  -12.750;  974.880
991.907;   68.869;  -12.040;  864.320
992.460;   66.315;  -11.330;  753.760
993.012;   66.215;  -13.610;  749.540
993.565;   65.233;  -13.460;  711.360
994.117;   67.215;   -9.360;  950.780
994.669;   63.929;  -11.300;  701.320
995.221;   62.202;  -13.540;  791.920
995.774;   59.729;  -13.430;  787.580
996.326;   57.627;  -12.520;  740.220
996.878;   55.299;  -10.950;  838.420
997.430;   52.449;  -14.300;  699.860
997.982;   52.328;  -13.760;  750.140
998.534;   53.546;  -11.530;  739.060
999.086;   51.270;  -10.310;  738.220
999.638;   51.050;  -12.530;  661.380
1000.190;   51.301;  -11.840;  699.320
1000.741;   51.232;  -10.260;  742.700
1001.293;   50.036;   -8.860;  686.020
1001.845;   48.761;  -13.700;  676.640
1002.396;   48.938;  -12.100;  743.400
1002.948;   48.964;  -12.760;  737.400
1003.500;   46.841;  -10.380;  723.780
1004.051;   47.640;  -11.900;  907.580
1004.603;   46.561;  -12.250;  791.820
1005.154;   43.092;  -13.210;  608.980
1005.705;   41.480;  -10.950;  723.960
1006.257;   41.553;  -13.880;  707.220
1006.808;   40.765;  -12.840;  685.460
1007.359;   41.032;  -10.570;  763.240
1007.910;   39.495;   -9.620;  646.640
1008.461;   38.941;  -13.630;  732.940
1009.013;   38.664;  -17.200;  588.340
1009.564;   39.505;  -10.200;  793.520
1010.115;   36.640;  -12.570;  597.040
1010.665;   36.652;  -15.150;  602.160
1011.216;   37.254;  -14.480;  667.920
1011.767;   36.647;  -11.340;  697.920
1012.318;   35.970;   -9.780;  736.980
1012.869;   35.549;  -12.380;  679.000
1013.419;   35.399;  -15.560;  603.120
1013.970;   35.463;  -11.010;  666.640
1014.521;   34.463;  -11.610;  620.620
1015.071;   34.809;  -13.450;  670.380
1015.622;   34.953;  -13.870;  635.460
1016.172;   34.081;  -11.610;  596.820
1016.723;   33.204;  -12.120;  614.380
1017.273;   32.566;  -13.620;  604.160
1017.823;   33.721;  -14.140;  650.340
1018.374;   33.527;  -12.800;  611.760
1018.924;   32.514;  -12.340;  716.880
1019.474;   32.939;  -11.410;  718.880
1020.024;   32.535;  -14.770;  657.580
1020.574;   32.701;   -9.780;  726.160
1021.124;   32.079;   -8.560;  673.580
1021.674;   30.825;  -15.190;  559.120
1022.224;   32.266;  -13.530;  708.940
1022.774;   31.777;  -13.280;  668.820
1023.324;   32.362;  -10.690;  753.520
1023.874;   33.500;  -10.240;  875.760
1024.423;   31.053;  -12.540;  613.700
1024.973;   30.058;  -10.010;  610.760
1025.523;   28.949;  -10.550;  620.960
1026.072;   29.328;  -13.560;  606.420
1026.622;   29.055;  -15.120;  675.740
1027.172;   29.827;  -11.260;  715.660
1027.721;   29.113;  -11.410;  601.220
1028.270;   28.705;  -13.530;  663.400
1028.820;   29.580;  -13.680;  638.080
1029.369;   29.246;  -13.520;  612.700
1029.918;   28.533;  -10.980;  649.840
1030.468;   28.164;  -13.530;  564.780
1031.017;   28.413;  -13.170;  634.800
1031.566;   28.025;  -12.200;  608.900
1032.115;   28.227;   -9.960;  694.500
1032.664;   26.592;  -13.210;  596.480
1033.213;   28.491;  -12.500;  735.420
1033.762;   27.031;  -11.910;  635.620
1034.311;   27.348;   -9.640;  677.220
1034.860;   27.661;  -13.310;  691.000
1035.408;   27.686;  -11.830;  722.720
1035.957;   28.159;  -12.000;  719.540
1036.506;   25.701;  -11.690;  530.800
1037.055;   27.149;  -10.990;  844.320
1037.603;   25.846;  -15.120;  664.000
1038.152;   24.588;  -12.450;  534.760
1038.700;   24.210;  -10.560;  585.740
1039.249;   24.737;  -11.080;  681.220
1039.797;   25.886;  -12.540;  633.360
1040.345;   25.935;  -11.920;  705.420
1040.894;   24.928;  -11.410;  625.300
1041.442;   24.594;  -14.320;  632.200
1041.990;   23.241;  -16.240;  559.160
1042.538;   23.339;  -11.680;  536.180
1043.087;   23.562;  -10.760;  570.860
1043.635;   23.985;  -11.850;  670.500
1044.183;   23.166;  -15.480;  586.400
1044.731;   23.204;  -11.770;  576.000
1045.279;   22.591;  -13.090;  674.920
1045.827;   24.965;  -12.440;  892.400
1046.374;   23.069;  -13.840;  515.420
1046.922;   21.807;  -13.220;  590.580
1047.470;   23.952;  -10.230;  691.300
1048.018;   22.656;  -14.590;  647.960
1048.565;   23.511;  -12.050;  708.600
1049.113;   21.974;  -11.650;  557.000
1049.660;   21.188;  -10.510;  629.660
1050.208;   21.906;  -13.310;  675.640
1050.755;   21.632;  -15.900;  606.580
1051.303;   21.964;  -11.430;  686.820
1051.850;   21.109;   -8.480;  635.120
1052.397;   19.746;  -15.010;  473.960
1052.945;   20.628;  -13.960;  617.760
1053.492;   22.327;  -13.150;  741.840
1054.039;   21.959;   -9.630;  720.180
1054.586;   20.328;  -13.680;  557.240
1055.133;   21.169;  -14.570;  693.140
1055.680;   20.515;  -13.820;  646.620
1056.227;   19.798;  -11.730;  542.780
1056.774;   21.409;  -12.480;  794.980
1057.321;   19.499;  -13.930;  523.260
1057.868;   19.234;  -11.690;  651.320
1058.415;   19.356;   -9.520;  651.980
1058.961;   20.419;  -13.160;  678.940
1059.508;   19.680;  -12.920;  643.820
1060.055;   19.216;  -11.920;  581.780
1060.601;   19.815;  -11.500;  624.300
1061.148;   19.401;  -14.330;  616.820
1061.694;   18.915;  -16.870;  592.580
1062.241;   18.988;  -10.330;  596.320
1062.787;   18.729;  -10.620;  663.140
1063.334;   20.067;  -10.110;  808.560
1063.880;   19.130;  -13.400;  668.360
1064.426;   18.723;  -10.680;  706.820
1064.972;   17.499;   -9.920;  601.340
1065.518;   16.359;  -10.980;  566.640
1066.065;   18.348;  -14.890;  624.460
1066.611;   17.295;  -12.870;  598.800
1067.157;   17.725;  -12.950;  641.860
1067.703;   17.403;  -13.540;  668.480
1068.249;   17.997;  -13.540;  605.220
1068.794;   17.039;  -12.600;  626.880
1069.340;   16.411;  -10.620;  578.960
1069.886;   16.109;  -12.830;  590.700
1070.432;   15.826;  -14.870;  541.720
1070.977;   16.135;  -11.980;  601.080
1071.523;   16.139;   -8.200;  573.060
1072.068;   16.265;  -12.330;  582.000
1072.614;   16.181;  -16.370;  527.760
1073.160;   17.460;  -11.100;  687.040
1073.705;   15.110;  -10.480;  572.520
1074.250;   15.200;  -14.520;  559.900
1074.796;   16.565;  -11.460;  655.160
1075.341;   15.679;  -11.950;  664.100
1075.886;   15.731;  -11.460;  594.240
1076.431;   14.871;  -13.770;  649.880
1076.976;   14.923;  -12.680;  639.220
1077.521;   14.624;  -13.170;  583.080
1078.067;   14.274;  -10.860;  579.400
1078.612;   14.471;  -13.920;  661.620
1079.156;   14.735;  -13.880;  601.540
1079.701;   14.586;  -13.120;  693.260
1080.246;   15.127;   -9.940;  696.300
1080.791;   13.979;  -14.740;  625.020
1081.336;   14.787;  -13.750;  659.320
1081.880;   14.187;  -13.400;  649.680
1082.425;   13.536;  -12.220;  573.480
1082.970;   14.439;  -11.610;  717.040
1083.514;   14.337;  -13.580;  597.000
1084.059;   13.458;  -12.810;  586.720
1084.603;   12.711;  -12.320;  565.840
1085.147;   13.366;  -13.190;  645.220
1085.692;   14.104;  -12.480;  716.800
1086.236;   12.388;  -13.020;  503.140
1086.780;   14.846;   -9.190;  751.440
1087.325;   13.452;  -12.480;  654.620
1087.869;   13.188;  -12.450;  610.700
1088.413;   13.951;  -12.240;  705.040
1088.957;   10.931;   -9.020;  543.400
1089.501;   13.410;  -10.320;  766.640
1090.045;   12.794;  -12.720;  726.480
1090.589;   11.771;  -13.690;  569.920
1091.133;   11.928;  -10.020;  673.340
1091.676;   12.305;  -12.330;  591.940
1092.220;   11.985;  -14.970;  600.920
1092.764;   13.075;  -12.430;  706.960
1093.307;   12.078;   -9.800;  673.780
1093.851;   10.643;  -14.970;  556.540
1094.395;   11.664;  -15.310;  683.140
1094.938;   11.105;  -10.370;  632.520
1095.482;   10.985;  -11.050;  559.800
1096.025;   11.461;  -11.840;  710.880
1096.568;   12.485;  -12.840;  779.280
1097.112;    9.588;  -14.700;  508.180
1097.655;   11.029;   -8.720;  603.000
1098.198;    9.642;  -13.610;  600.180
1098.741;   10.351;  -13.350;  612.860
1099.285;   10.651;  -11.230;  657.300
1099.828;    8.651;  -11.840;  439.400
1100.371;   10.256;  -10.840;  608.160
1100.914;   10.298;  -14.190;  682.660
1101.457;   10.271;  -11.240;  679.900
1101.999;    8.754;  -11.270;  584.680
1102.542;    9.425;  -11.480;  641.440
1103.085;    9.261;  -11.750;  658.500
1103.628;   10.100;  -11.400;  762.060
1104.170;    8.939;  -10.490;  588.280
1104.713;    9.252;  -10.600;  646.700
1105.256;    8.492;  -14.360;  557.440
1105.798;    8.143;  -13.210;  499.980
1106.341;    9.858;  -10.270;  728.900
1106.883;    8.664;  -12.200;  521.340
1107.425;    8.955;  -13.110;  668.180
1107.968;    8.790;  -12.840;  612.380
1108.510;    8.859;   -6.480;  684.960
1109.052;    7.522;  -13.940;  612.620
1109.594;    7.513;  -13.690;  554.440
1110.136;    9.264;  -11.880;  643.220
1110.679;    7.652;   -9.500;  633.080
1111.221;    8.787;  -14.160;  604.460
1111.763;    7.458;  -13.980;  559.220
1112.304;    7.528;  -13.880;  547.140
1112.846;    7.844;  -12.210;  666.240
1113.388;   10.333;  -11.390;  942.180
1113.930;    7.933;  -14.540;  694.200
1114.472;    7.010;  -12.640;  606.540
1115.013;    5.893;  -11.620;  551.280
1115.555;    6.579;  -13.640;  587.100
1116.097;    5.739;  -15.380;  579.480
1116.638;    7.046;  -12.640;  684.600
1117.180;    7.399;   -9.850;  667.740
1117.721;    7.079;  -13.690;  568.580
1118.262;    7.503;  -12.680;  677.960
1118.804;    7.701;  -12.530;  637.340
1119.345;    5.809;  -11.690;  578.400
1119.886;    7.181;  -13.380;  704.040
1120.427;    6.528;  -14.070;  589.020
1120.969;    5.862;  -13.500;  597.920
1121.510;    5.734;  -11.480;  563.060
1122.051;    5.602;  -12.830;  723.580
1122.592;    5.421;  -14.290;  655.420
1123.133;    4.971;  -12.400;  547.940
1123.673;    6.231;  -10.130;  706.480
1124.214;    6.005;  -12.930;  612.460
1124.755;    6.702;  -14.380;  639.460
1125.296;    5.690;  -14.000;  627.320
1125.836;    6.044;  -10.070;  691.500
1126.377;    4.661;  -12.640;  599.660
1126.918;    5.967;  -12.960;  614.980
1127.458;    4.245;  -13.350;  622.220
1127.999;    5.050;  -10.750;  656.980
1128.539;    5.538;  -12.350;  694.240
1129.079;    4.351;  -14.860;  632.720
1129.620;    4.053;  -13.840;  558.100
1130.160;    3.584;  -12.330;  539.480
1130.700;    4.719;  -14.530;  640.840
1131.240;    5.225;  -12.530;  643.700
1131.781;    4.247;  -14.450;  619.680
1132.321;    4.270;   -9.790;  599.120
1132.861;    2.732;  -14.860;  564.200
1133.401;    3.330;  -14.290;  593.940
1133.941;    4.081;  -11.750;  626.280
1134.481;    3.758;   -9.920;  597.580
1135.020;    3.202;  -12.290;  609.160
1135.560;    3.938;  -11.650;  674.940
1136.100;    3.275;  -16.270;  501.160
1136.640;    2.382;  -10.890;  510.480
1137.179;    3.074;  -14.180;  537.960
1137.719;    3.928;  -16.250;  605.400
1138.258;    3.566;  -14.230;  587.360
1138.798;    3.168;   -9.090;  663.780
1139.337;    2.132;  -15.130;  482.840
1139.877;    3.062;  -13.680;  642.360
1140.416;    4.870;  -11.320;  878.060
1140.955;    2.279;  -10.860;  535.380
1141.494;    2.588;  -12.920;  669.280
1142.034;    2.605;  -13.930;  583.520
1142.573;    3.941;  -11.440;  646.280
1143.112;    2.533;  -12.000;  553.480
1143.651;    2.302;  -13.670;  536.480
1144.190;    3.124;  -12.730;  691.640
1144.729;    2.478;  -14.560;  607.420
1145.267;    1.808;  -11.830;  584.900
1145.806;    3.290;  -12.230;  637.040
1146.345;    1.511;  -14.130;  635.020
1146.884;    1.613;  -11.590;  622.500
1147.422;    0.706;  -12.550;  533.060
1147.961;    3.260;  -11.180;  708.460
1148.500;    2.223;  -11.510;  669.720
1149.038;    2.895;  -11.640;  632.500
1149.577;    1.856;  -10.130;  698.640
1150.115;    0.003;  -13.970;  452.280
1150.653;    1.417;  -14.520;  607.340
1151.192;    1.683;  -12.810;  552.920
1151.730;    1.719;   -9.100;  652.560
1152.268;    0.599;  -12.220;  589.520
1152.806;    1.052;  -14.140;  571.180
1153.344;    0.155;  -12.350;  577.640
1153.882;    1.272;   -8.980;  600.060
1154.421;    0.389;  -15.190;  470.620
1154.958;    0.178;  -15.210;  595.240
1155.496;    1.960;  -12.850;  645.280
1156.034;    0.298;   -9.940;  721.880
1156.572;    1.926;  -13.570;  667.060
1157.110;   -0.925;  -14.590;  473.940
1157.647;    1.423;  -13.030;  676.960
1158.185;   -0.364;  -12.140;  564.320
1158.723;   -1.148;  -14.390;  509.200
1159.260;   -0.137;  -14.090;  701.700
1159.798;    0.526;  -11.920;  658.160
1160.335;   -0.483;  -11.110;  631.820

