
Integration time [ms]:   3.276
Averaging Nr. [scans]: 1000
Smoothing Nr. [pixels]: 0
Data measured with spectrometer [name]: 7414430SP
Wave   ;Sample   ;Dark     ;Reference
[nm]   ;[counts] ;[counts] ;[counts] 

288.544;  157.236;    7.793;  793.890
289.143;  160.353;    7.462;  681.602
289.742;  160.707;    8.602;  828.814
290.341;  148.233;    1.321;  789.841
290.940;  138.812;   -0.709;  730.702
291.538;  139.978;    0.881;  881.108
292.137;  139.141;    0.122;  792.581
292.736;  141.140;   -1.929;  975.101
293.335;  138.207;   -8.229;  735.086
293.934;  140.615;   -5.279;  781.677
294.532;  139.488;   -1.369; 1031.958
295.131;  125.897;   -7.641;  834.394
295.730;  126.626;   -8.420;  809.588
296.328;  123.259;   -5.611;  783.442
296.927;  122.305;   -5.781;  779.652
297.525;  124.360;   -6.361;  781.236
298.124;  116.506;  -11.382;  654.009
298.722;  119.954;   -7.641;  761.933
299.321;  116.243;   -6.811;  708.597
299.919;  113.398;   -6.991;  751.918
300.518;  110.914;  -10.362;  689.338
301.116;  112.404;   -9.581;  691.381
301.715;  112.542;   -4.891;  730.222
302.313;  111.295;   -8.801;  704.943
302.911;  107.731;   -8.522;  733.830
303.509;  112.094;   -6.171;  925.627
304.108;  108.653;   -7.311;  760.383
304.706;  108.741;   -8.321;  801.664
305.304;  103.882;  -10.222;  796.707
305.902;  107.793;   -6.021;  784.484
306.500;  103.405;   -4.971;  728.200
307.098;  102.329;   -7.061;  746.560
307.696;  101.408;   -8.801;  780.432
308.294;  101.074;   -6.411;  731.359
308.892;  101.781;   -2.901;  759.769
309.490;   98.814;   -5.041;  712.161
310.088;   98.360;   -5.002;  788.444
310.686;  101.695;   -2.041;  821.749
311.284;   96.806;   -2.351;  766.040
311.882;   94.860;   -4.422;  731.225
312.480;   91.842;   -4.192;  697.167
313.078;   93.632;   -1.172;  808.331
313.675;   93.260;   -2.601;  691.600
314.273;   88.294;   -1.312;  797.837
314.871;   88.469;   -3.942;  589.829
315.468;   86.368;   -2.802;  652.090
316.066;   88.184;   -0.701;  694.427
316.664;   80.998;   -4.362;  656.351
317.261;   86.604;   -2.872;  910.128
317.859;   81.868;   -2.022;  768.735
318.456;   81.564;   -0.531;  830.096
319.054;   77.652;   -3.912;  787.828
319.651;   76.785;   -4.752;  759.928
320.249;   75.101;   -2.602;  810.188
320.846;   72.197;   -0.821;  714.286
321.443;   70.078;   -4.642;  832.135
322.041;   68.021;   -5.002;  812.315
322.638;   65.298;   -3.982;  701.456
323.235;   65.845;   -3.411;  665.683
323.833;   62.990;   -7.361;  740.354
324.430;   58.721;   -8.611;  615.900
325.027;   59.662;   -4.061;  876.855
325.624;   57.872;   -4.031;  644.532
326.221;   54.975;   -7.481;  689.717
326.818;   56.015;   -5.281;  818.332
327.415;   58.604;   -7.460;  748.828
328.012;   56.850;   -5.510;  690.585
328.609;   55.722;   -7.880;  731.389
329.206;   55.323;   -8.331;  778.621
329.803;   54.890;   -5.121;  737.841
330.400;   55.995;   -4.510;  704.260
330.997;   57.268;   -6.441;  817.147
331.594;   56.901;   -8.831;  788.185
332.191;   61.557;   -7.621;  728.722
332.787;   65.209;   -4.591;  844.463
333.384;   64.768;   -7.412;  763.093
333.981;   64.450;   -8.293;  815.687
334.578;   66.673;   -7.052;  708.378
335.174;   68.945;   -3.102;  731.469
335.771;   67.246;   -5.943;  836.456
336.367;   66.038;   -7.393;  710.631
336.964;   70.403;   -4.063;  793.266
337.561;   67.215;   -3.813;  731.112
338.157;   64.109;   -4.654;  911.916
338.754;   62.790;   -7.934;  796.589
339.350;   60.607;   -4.414;  722.493
339.946;   60.950;   -4.664;  773.135
340.543;   53.621;   -6.375;  846.136
341.139;   48.613;   -9.815;  720.836
341.735;   45.234;   -4.526;  772.593
342.332;   44.386;   -4.895;  691.472
342.928;   43.706;   -4.295;  795.394
343.524;   37.014;   -5.476;  761.684
344.120;   33.888;   -5.856;  738.562
344.716;   37.497;   -2.155;  723.717
345.313;   34.746;   -6.275;  795.342
345.909;   29.722;   -8.815;  627.336
346.505;   30.881;   -5.305;  740.247
347.101;   30.695;   -2.674;  827.864
347.697;   31.329;   -4.344;  785.398
348.293;   26.152;   -9.975;  627.244
348.889;   27.595;   -5.774;  745.914
349.485;   26.092;   -5.004;  688.205
350.081;   26.065;   -4.704;  772.592
350.676;   22.697;   -6.635;  691.606
351.272;   26.501;   -4.504;  809.530
351.868;   26.161;   -3.914;  780.497
352.464;   23.135;   -9.044;  723.932
353.059;   19.924;   -8.314;  646.017
353.655;   23.412;   -7.024;  777.063
354.251;   23.437;   -5.343;  759.845
354.846;   17.807;   -8.604;  740.646
355.442;   17.163;   -6.945;  753.071
356.038;   17.557;   -7.564;  751.708
356.633;   17.626;   -5.814;  728.594
357.229;   15.601;   -7.364;  724.757
357.824;   14.632;   -8.024;  703.600
358.420;   13.626;   -9.384;  679.726
359.015;   13.495;   -5.104;  695.357
359.610;   14.550;   -6.854;  763.920
360.206;    9.200;  -10.185;  603.240
360.801;   11.681;   -7.054;  646.503
361.396;   13.483;   -5.034;  725.975
361.992;    8.150;   -8.284;  668.220
362.587;    6.468;   -8.625;  670.160
363.182;    8.431;   -7.674;  689.631
363.777;    8.673;   -5.164;  738.242
364.372;    8.357;   -8.604;  737.314
364.967;    4.911;   -9.055;  680.744
365.563;    9.337;   -6.114;  815.567
366.158;    5.310;   -5.814;  685.161
366.753;    5.992;   -7.854;  649.263
367.348;    5.803;   -7.804;  746.056
367.942;    4.747;   -7.954;  697.298
368.537;    3.960;   -4.984;  754.245
369.132;    3.959;   -8.564;  703.428
369.727;    1.051;   -8.855;  638.079
370.322;    1.534;   -6.245;  580.186
370.917;    1.154;   -6.425;  710.646
371.511;    3.492;   -6.294;  861.834
372.106;   -0.032;   -7.685;  776.964
372.701;   -3.043;   -7.335;  585.988
373.296;    2.221;   -4.564;  863.135
373.890;   -2.522;  -10.235;  647.840
374.485;   -4.498;   -7.885;  691.199
375.079;   -0.782;   -7.324;  738.685
375.674;    0.198;   -3.494;  812.970
376.268;   -4.093;   -8.525;  691.759
376.863;   -8.688;  -10.086;  580.327
377.457;   -2.900;   -7.025;  662.490
378.052;   -4.935;   -3.585;  764.884
378.646;   -6.574;   -7.595;  741.167
379.240;   -6.085;   -8.335;  721.176
379.835;   -5.768;   -5.785;  636.978
380.429;   -8.326;   -4.335;  562.557
381.023;   -8.207;   -6.805;  779.205
381.617;   -8.999;   -9.195;  680.106
382.212;   -6.750;   -6.905;  685.303
382.806;   -6.695;   -3.745;  760.690
383.400;  -11.191;   -7.745;  672.281
383.994;  -10.478;   -9.765;  664.870
384.588;   -6.680;   -6.564;  697.701
385.182;   -7.022;   -5.344;  726.624
385.776;   -8.014;   -8.514;  706.875
386.370;  -10.471;   -9.555;  681.968
386.964;   -9.922;   -8.715;  684.155
387.558;   -8.614;   -6.174;  598.360
388.152;  -11.662;   -8.725;  681.959
388.745;   -9.855;   -7.965;  814.707
389.339;   -8.005;   -5.924;  747.642
389.933;   -7.500;   -5.524;  695.370
390.527;   -8.802;   -7.114;  859.029
391.120;  -14.129;  -10.725;  595.318
391.714;  -11.706;   -8.035;  711.633
392.308;   -8.988;   -3.574;  780.253
392.901;  -12.892;   -7.245;  642.460
393.495;  -14.283;   -9.285;  595.414
394.089;  -12.130;   -5.895;  760.452
394.682;  -13.039;   -4.295;  697.188
395.275;  -13.970;   -9.875;  719.927
395.869;  -13.952;   -8.485;  667.314
396.462;  -12.719;   -7.455;  616.609
397.056;   -9.302;   -5.424;  776.621
397.649;  -14.207;   -6.605;  731.575
398.242;  -10.283;   -8.224;  712.645
398.836;  -10.396;   -7.474;  766.408
399.429;  -12.054;   -7.094;  631.041
400.022;  -15.454;   -9.475;  665.902
400.615;  -11.839;   -7.145;  805.609
401.208;  -10.451;   -7.174;  691.451
401.802;  -13.415;   -5.515;  699.329
402.395;  -14.219;   -9.875;  683.502
402.988;  -14.943;   -8.845;  696.627
403.581;  -11.986;   -8.874;  646.878
404.174;   -9.793;   -5.324;  686.568
404.767;  -13.098;   -9.575;  638.583
405.360;  -14.566;  -10.965;  621.445
405.953;   -8.336;   -8.764;  759.034
406.545;   -9.810;   -7.514;  725.342
407.138;  -13.971;  -10.025;  618.350
407.731;  -12.043;  -10.034;  613.303
408.324;   -7.735;   -9.374;  660.554
408.917;   -9.501;   -6.534;  681.864
409.509;  -11.348;   -8.004;  740.396
410.102;  -12.283;   -9.875;  643.948
410.695;   -6.347;   -8.604;  665.758
411.287;   -8.015;   -6.794;  599.821
411.880;   -9.450;   -9.334;  585.421
412.472;  -12.185;  -10.254;  613.092
413.065;   -9.619;   -6.714;  629.408
413.657;   -7.122;   -7.234;  576.678
414.250;   -7.307;  -10.544;  646.681
414.842;   -8.520;   -9.744;  676.353
415.434;   -6.427;   -6.994;  570.463
416.027;   -3.046;   -5.893;  652.196
416.619;   -5.143;   -7.264;  713.400
417.211;   -4.353;  -10.374;  599.352
417.804;   -1.133;   -7.993;  628.499
418.396;   -6.411;   -7.234;  607.643
418.988;   -3.866;   -9.443;  659.238
419.580;   -6.133;  -10.724;  568.276
420.172;   -4.795;  -10.323;  536.196
420.764;   -1.049;   -8.793;  672.482
421.356;   -1.782;  -11.143;  636.898
421.948;   -2.410;   -8.293;  677.661
422.540;    2.799;   -7.893;  680.027
423.132;    1.529;   -7.082;  600.641
423.724;   -1.404;   -8.653;  561.267
424.316;    0.983;  -10.213;  621.345
424.908;    4.390;   -9.762;  591.517
425.500;    4.254;   -5.572;  647.978
426.092;    4.298;   -8.422;  648.268
426.683;    4.174;   -9.283;  684.836
427.275;    6.497;   -7.852;  641.471
427.867;    7.550;   -5.272;  668.948
428.458;    8.430;   -7.682;  732.344
429.050;    7.199;  -10.612;  680.749
429.642;    9.201;   -9.882;  743.124
430.233;    9.479;   -6.962;  569.356
430.825;   10.789;   -6.842;  724.809
431.416;    9.081;   -9.672;  698.241
432.008;   12.908;   -6.552;  651.723
432.599;   12.883;   -6.891;  656.073
433.190;    9.670;  -10.912;  637.670
433.782;    9.908;  -11.172;  590.395
434.373;   16.620;   -6.061;  884.765
434.964;   15.159;   -8.251;  602.920
435.556;   12.510;   -9.722;  634.537
436.147;   16.115;   -9.082;  758.490
436.738;   16.323;   -8.041;  701.099
437.329;   20.679;   -7.341;  721.723
437.920;   13.437;   -8.162;  666.688
438.511;   13.960;  -11.802;  564.526
439.103;   20.549;  -10.191;  623.998
439.694;   21.780;   -7.601;  681.583
440.285;   22.976;   -8.541;  764.432
440.876;   21.950;   -9.751;  845.738
441.466;   20.799;   -9.401;  575.162
442.057;   25.437;   -7.760;  665.814
442.648;   24.526;   -9.971;  746.255
443.239;   23.599;  -11.001;  620.477
443.830;   27.880;   -7.990;  704.958
444.421;   29.353;   -7.910;  655.474
445.011;   26.424;   -8.131;  693.619
445.602;   25.910;   -7.111;  743.126
446.193;   27.819;  -10.920;  488.117
446.783;   31.735;   -6.500;  640.397
447.374;   26.984;   -8.671;  692.759
447.964;   28.430;  -10.781;  713.770
448.555;   37.583;   -9.650;  822.742
449.145;   32.846;   -8.660;  662.853
449.736;   33.299;   -8.990;  803.179
450.326;   34.133;   -9.500;  713.626
450.917;   39.001;   -8.680;  675.324
451.507;   37.147;   -7.520;  600.661
452.097;   38.311;   -8.590;  746.267
452.688;   40.275;  -11.340;  742.160
453.278;   39.648;  -10.100;  566.840
453.868;   43.068;   -6.019;  793.550
454.458;   41.375;   -9.440;  651.141
455.048;   42.379;  -10.560;  711.783
455.639;   43.564;  -11.799;  567.096
456.229;   46.316;   -6.899;  710.694
456.819;   48.870;   -7.389;  751.158
457.409;   49.468;  -11.119;  773.993
457.999;   52.888;   -9.289;  737.505
458.589;   51.950;   -6.139;  686.606
459.179;   52.616;   -8.729;  717.658
459.769;   50.858;   -9.789;  627.099
460.358;   55.541;  -10.259;  797.262
460.948;   54.669;   -7.299;  689.503
461.538;   56.357;  -10.289;  660.677
462.128;   55.500;  -11.269;  664.934
462.717;   61.470;   -9.368;  710.326
463.307;   64.003;   -7.908;  705.846
463.897;   60.156;   -9.599;  656.942
464.486;   59.977;   -9.769;  837.128
465.076;   63.991;   -8.048;  733.776
465.666;   66.895;   -9.358;  652.900
466.255;   65.145;   -7.919;  785.651
466.845;   63.958;  -11.689;  666.749
467.434;   67.537;   -7.818;  725.873
468.023;   67.876;   -7.678;  658.357
468.613;   65.656;  -10.939;  713.946
469.202;   70.850;  -10.118;  646.507
469.791;   74.836;   -9.108;  737.811
470.381;   76.689;   -6.058;  742.813
470.970;   76.018;  -10.428;  711.099
471.559;   75.523;  -10.268;  733.291
472.148;   78.897;   -8.448;  675.737
472.738;   81.902;   -6.917;  765.466
473.327;   80.500;  -11.978;  637.529
473.916;   80.590;  -11.888;  737.446
474.505;   85.307;   -9.437;  751.703
475.094;   87.803;   -6.747;  806.570
475.683;   86.518;   -9.367;  797.699
476.272;   88.500;  -12.637;  730.632
476.861;   90.582;  -10.027;  706.754
477.449;   96.792;   -8.716;  728.487
478.038;   91.314;   -9.577;  692.513
478.627;   92.757;   -9.718;  714.852
479.216;   99.767;   -8.947;  769.441
479.805;  102.141;   -6.256;  783.375
480.393;  101.632;   -7.937; 1008.945
480.982;  101.878;   -7.717;  874.501
481.571;  108.038;   -9.266;  858.333
482.159;  108.426;   -7.636;  705.386
482.748;  107.612;   -9.667;  821.385
483.336;  113.592;  -10.376;  858.209
483.925;  113.592;   -7.147;  774.373
484.513;  120.482;   -7.996;  758.962
485.102;  116.981;  -10.027;  810.965
485.690;  126.966;  -10.446; 1011.050
486.278;  128.170;   -8.446;  979.329
486.867;  127.791;   -6.356;  809.662
487.455;  130.266;   -9.136;  898.229
488.043;  132.582;  -10.646;  748.361
488.631;  141.834;   -7.456; 1005.079
489.220;  145.342;   -6.636;  908.626
489.808;  144.033;  -11.036;  741.415
490.396;  154.327;  -10.246;  914.645
490.984;  161.040;   -8.556;  830.161
491.572;  172.163;   -5.886;  940.315
492.160;  179.390;   -9.486;  919.081
492.748;  193.295;  -10.976;  884.341
493.336;  216.381;   -8.776; 1019.693
493.924;  245.003;   -5.465;  958.077
494.512;  278.420;   -9.986; 1066.638
495.100;  327.921;  -10.636; 1103.280
495.687;  390.556;  -10.885; 1206.373
496.275;  444.459;   -8.126; 1150.796
496.863;  513.277;  -10.586; 1281.171
497.451;  628.083;  -11.926; 1386.805
498.038;  738.898;  -10.885; 1556.729
498.626;  839.546;   -6.315; 1741.407
499.214;  993.793;   -7.326; 2016.609
499.801; 1213.552;  -11.906; 2220.633
500.389; 1468.541;  -10.466; 2312.494
500.976; 1719.288;   -5.236; 2744.849
501.564; 2142.577;   -8.936; 3148.565
502.151; 2613.556;  -13.176; 3515.999
502.738; 3135.615;  -10.646; 3971.274
503.326; 3530.937;   -9.525; 4403.796
503.913; 3831.452;  -10.856; 5161.749
504.500; 4331.302;  -11.586; 5986.420
505.088; 4641.634;  -10.336; 6381.201
505.675; 5094.059;   -6.355; 6925.547
506.262; 5559.541;   -9.046; 7619.060
506.849; 6047.751;  -10.416; 8733.969
507.436; 6517.331;  -10.305; 9790.121
508.023; 6958.980;   -5.496; 9985.472
508.610; 7820.465;   -7.856;10434.618
509.197; 9162.213;  -10.097;11198.435
509.784;10634.247;  -10.886;12391.194
510.371;12009.309;   -9.315;13603.713
510.958;12870.543;   -9.936;14426.586
511.545;13469.640;   -9.326;15243.775
512.132;14006.417;  -10.075;15945.876
512.719;14171.845;   -7.796;16340.369
513.305;15087.104;  -10.606;18011.766
513.892;16469.074;  -11.486;19754.971
514.479;18214.232;   -9.126;20967.805
515.066;19789.006;   -6.026;22299.793
515.652;20060.736;   -8.466;22908.660
516.239;21058.768;  -10.886;23798.875
516.825;23111.352;  -11.496;25567.275
517.412;25008.969;   -5.796;28154.959
517.998;26860.713;  -10.506;28344.111
518.585;26540.314;  -10.076;27134.219
519.171;25151.180;   -8.315;27268.576
519.758;25899.766;   -8.596;28964.129
520.344;27046.664;   -8.466;30664.494
520.930;29631.818;  -11.006;32550.605
521.516;30068.635;  -10.495;35422.895
522.103;28422.316;   -5.526;38280.004
522.689;28669.975;   -8.746;37835.117
523.275;29823.387;  -11.376;37288.613
523.861;30845.391;  -11.156;37281.395
524.447;31978.732;   -8.135;37846.949
525.033;30576.621;   -7.896;38321.949
525.619;30670.436;  -12.476;38579.285
526.205;33918.391;   -9.516;40622.875
526.791;36370.742;   -6.926;42258.836
527.377;38785.555;   -8.346;42966.902
527.963;40695.219;   -8.717;42018.949
528.549;39684.215;  -11.016;42476.828
529.135;39944.355;   -8.536;41854.852
529.721;39545.613;   -9.666;41237.711
530.306;37824.875;  -10.066;41259.445
530.892;37792.035;  -11.356;41506.047
531.478;37101.945;   -6.596;43559.613
532.063;37387.008;   -8.836;47695.563
532.649;41112.754;  -10.047;50808.324
533.235;42336.484;   -9.746;51787.500
533.820;41319.703;   -6.566;52145.035
534.406;40202.066;  -10.817;51133.488
534.991;42958.266;   -9.416;49996.805
535.576;44264.184;   -9.036;48882.852
536.162;44383.371;   -6.156;46942.285
536.747;45363.008;  -11.607;45711.746
537.333;45702.648;  -11.787;48510.180
537.918;45608.855;  -12.437;50439.891
538.503;46334.285;   -7.196;50863.711
539.088;43388.168;  -10.556;50906.922
539.673;41440.648;   -8.767;52621.965
540.259;41785.328;  -10.026;52368.094
540.844;42181.313;   -7.416;50879.109
541.429;39087.941;   -9.467;52077.777
542.014;36727.871;   -9.527;52716.695
542.599;38195.398;   -9.946;52363.281
543.184;42821.027;   -7.927;53187.137
543.769;45275.852;   -9.297;54697.605
544.354;44968.352;  -10.127;53913.914
544.938;44725.297;   -9.267;49680.164
545.523;47627.934;   -6.506;47386.277
546.108;51769.699;   -9.787;49151.949
546.693;51025.531;  -11.587;51384.637
547.278;50386.289;  -10.986;51853.254
547.862;46792.406;   -8.206;51173.750
548.447;44171.102;  -10.067;51691.395
549.031;45138.609;   -9.637;52456.703
549.616;46316.547;   -9.926;52714.516
550.201;45105.352;   -6.347;52414.598
550.785;44261.938;   -7.917;52355.059
551.370;45025.570;  -10.867;54589.453
551.954;45773.059;   -9.047;58267.348
552.538;47222.512;   -7.827;59062.176
553.123;47161.523;  -10.287;58115.285
553.707;42983.383;  -12.178;56556.285
554.291;43692.137;   -8.717;56201.668
554.876;46984.113;   -7.457;55335.762
555.460;47925.813;  -10.387;54155.703
556.044;48679.742;   -9.618;53721.484
556.628;47832.461;  -11.567;53731.016
557.212;45971.883;   -8.097;54312.531
557.796;47031.199;  -11.077;53797.773
558.380;44876.563;  -11.108;56145.984
558.964;43689.496;   -9.057;57277.930
559.548;43799.727;   -6.977;56459.641
560.132;43086.516;  -11.457;54434.543
560.716;42062.297;  -11.378;54800.617
561.300;42867.176;   -9.577;57606.945
561.884;44664.047;   -7.127;58972.445
562.467;45569.039;   -7.118;57327.570
563.051;45237.375;  -13.358;54962.434
563.635;42992.352;  -10.178;52594.473
564.219;42272.551;   -7.837;50610.410
564.802;41795.633;  -11.398;49551.180
565.386;42939.020;  -12.788;48370.953
565.969;43525.605;   -9.077;48178.871
566.553;43859.719;   -6.207;49957.305
567.136;41290.480;   -8.568;50369.594
567.720;40282.852;  -11.868;49492.004
568.303;40141.309;   -8.268;50616.352
568.887;39028.441;   -8.698;50727.148
569.470;39284.688;   -6.808;51698.379
570.053;37964.551;  -13.188;52122.078
570.637;36596.844;  -12.037;52536.438
571.220;35950.898;   -8.577;51186.098
571.803;36349.672;   -8.498;51032.762
572.386;38862.848;  -10.498;49609.887
572.969;40494.254;   -9.388;48285.926
573.552;36874.316;   -8.338;47624.285
574.135;34870.883;   -8.518;45498.641
574.718;31786.482;  -13.628;41970.434
575.301;31292.799;  -10.893;41447.137
575.884;30799.117;   -8.158;40923.836
576.467;35636.207;  -10.328;45267.723
577.050;34315.121;  -13.058;48175.543
577.633;33287.180;   -9.458;47729.328
578.216;34588.195;   -8.928;47579.793
578.799;35407.516;   -9.358;47820.996
579.381;34935.672;  -11.388;48115.551
579.964;32195.439;  -11.718;47333.766
580.547;32217.033;   -8.588;46668.969
581.129;33742.832;   -8.859;44466.141
581.712;34148.871;  -10.729;44164.922
582.294;35468.070;  -11.118;46477.855
582.877;33192.852;   -5.218;48244.254
583.459;33089.238;   -8.679;47437.895
584.042;35092.402;  -10.709;46943.219
584.624;37402.109;  -11.669;46792.227
585.206;36340.969;   -8.218;46557.250
585.789;34846.164;  -10.569;45793.773
586.371;34898.273;  -11.859;43836.391
586.953;33569.445;  -10.719;42972.492
587.536;35324.258;   -7.198;42487.211
588.118;36523.930;   -8.720;42086.414
588.700;35926.977;  -10.439;43389.930
589.282;36103.266;   -9.198;43646.039
589.864;34951.289;   -9.199;43438.109
590.446;32529.041;  -11.319;43151.926
591.028;32213.156;  -11.159;42781.867
591.610;32168.111;  -11.779;42839.098
592.192;29316.957;   -7.668;42820.402
592.774;30170.611;  -11.949;40724.277
593.356;31257.762;  -12.129;39874.789
593.937;29463.967;  -10.669;39980.648
594.519;30788.043;   -6.509;42069.633
595.101;32532.732;  -10.849;42976.031
595.683;31334.428;  -11.679;44084.441
596.264;30792.102;   -9.049;43478.797
596.846;32604.836;   -8.849;43803.672
597.427;32889.145;   -9.570;42986.934
598.009;33933.551;  -12.620;42832.219
598.591;33160.102;  -10.039;42580.086
599.172;32253.740;  -10.369;43061.805
599.753;30656.055;   -9.140;41691.469
600.335;30499.828;  -11.430;40692.520
600.916;31034.969;   -9.939;39982.422
601.498;29905.635;   -8.479;40318.617
602.079;28537.404;  -10.920;40670.609
602.660;30419.467;  -11.480;41450.898
603.241;32099.590;  -11.699;41137.738
603.823;32636.928;   -9.579;38868.797
604.404;32369.840;  -10.620;38182.785
604.985;31024.430;  -10.450;38078.047
605.566;30510.055;   -9.129;38056.633
606.147;30414.436;   -7.510;37020.418
606.728;31509.725;  -10.660;37883.359
607.309;32355.441;  -11.740;38748.273
607.890;32003.191;   -9.759;38850.230
608.471;30542.701;   -8.250;37457.918
609.051;30780.045;   -9.240;36066.457
609.632;28981.318;  -12.120;35991.074
610.213;27915.932;   -9.110;37402.641
610.794;29499.896;   -8.030;38383.363
611.374;31809.150;   -8.110;40562.387
611.955;31688.367;  -13.560;38533.727
612.536;29076.156;  -11.400;36951.789
613.116;27769.857;   -8.070;37197.891
613.697;29901.463;  -10.830;38411.125
614.277;31528.168;  -11.641;38673.938
614.858;30936.064;  -13.310;37075.863
615.438;29247.992;   -7.460;35092.906
616.019;27591.674;   -7.601;33666.301
616.599;28314.549;  -12.020;34189.023
617.179;30180.338;  -11.780;36952.047
617.760;32872.168;   -8.570;39582.574
618.340;32903.602;  -11.471;38943.977
618.920;31492.160;  -11.170;37594.156
619.500;33389.996;  -11.071;37866.938
620.080;33541.746;   -7.750;37869.043
620.660;31790.631;  -12.711;36868.617
621.241;30355.207;  -10.211;36352.309
621.821;29337.781;  -10.961;35459.520
622.401;28311.744;   -7.720;35207.414
622.980;29317.768;   -8.981;35980.422
623.560;29788.453;   -9.331;37351.328
624.140;28772.904;   -9.850;34388.582
624.720;26362.736;   -7.451;32368.764
625.300;24679.922;   -9.070;32638.629
625.880;28180.922;  -12.601;34599.035
626.459;30033.988;  -11.751;36831.738
627.039;30458.461;   -9.281;38299.098
627.619;32348.893;   -8.801;38289.574
628.198;31869.803;  -12.071;37220.695
628.778;30524.637;   -9.461;37632.563
629.357;31411.662;   -8.491;38003.012
629.937;31636.723;   -9.721;38402.039
630.516;31761.854;   -9.951;37868.801
631.096;32214.910;  -11.731;35760.410
631.675;33582.828;   -8.572;35225.219
632.254;33105.230;  -11.282;35130.289
632.834;32580.959;  -13.322;35794.570
633.413;32291.426;  -10.301;35788.922
633.992;31573.371;   -8.582;34532.863
634.571;33246.566;   -8.352;33590.113
635.151;33334.758;  -11.912;34943.863
635.730;32432.691;  -10.511;35352.523
636.309;34548.301;   -7.731;35366.605
636.888;32601.242;   -9.952;36165.637
637.467;30697.365;  -11.672;37515.902
638.046;30507.779;   -8.901;39288.695
638.625;31276.117;   -7.912;38279.699
639.204;31908.951;  -10.022;37741.598
639.782;30069.170;  -12.252;38364.551
640.361;28224.391;  -10.041;36740.621
640.940;27377.793;  -11.161;34950.082
641.519;28464.695;   -9.701;34137.398
642.097;30173.189;  -11.271;35654.258
642.676;31671.289;   -8.651;35637.957
643.255;33024.707;   -8.711;36567.074
643.833;30738.887;   -9.581;37809.434
644.412;28458.496;  -13.711;37337.293
644.990;30240.404;  -11.811;37018.531
645.569;32679.816;   -9.411;36518.469
646.147;32012.158;  -10.291;36186.430
646.726;31017.469;  -12.401;36267.688
647.304;31133.730;  -10.411;36647.625
647.882;30371.680;   -9.651;39286.742
648.461;31623.221;   -9.631;39157.703
649.039;34800.004;  -11.881;35412.883
649.617;35179.793;   -9.661;34744.918
650.195;33068.918;   -9.301;35403.098
650.773;31781.340;  -10.511;35053.797
651.352;30992.119;  -11.521;33756.816
651.930;28633.080;  -12.211;31868.773
652.508;25591.637;   -9.171;33121.551
653.086;26523.523;   -9.371;33564.793
653.663;32170.154;  -13.161;34054.668
654.241;35962.664;  -13.031;35693.309
654.819;36983.777;   -9.371;36422.906
655.397;37019.133;  -10.511;38213.484
655.975;33383.613;  -10.371;39507.625
656.553;30225.744;  -10.051;39498.223
657.130;28820.799;  -10.061;40395.480
657.708;26900.811;   -9.561;39242.020
658.286;24144.088;  -11.511;38920.020
658.863;25986.857;  -10.261;40202.898
659.441;29841.004;   -7.531;39677.938
660.018;31894.549;   -9.501;40413.355
660.596;31064.250;  -13.301;39931.414
661.173;30498.475;  -11.211;39604.531
661.750;32097.432;   -9.951;39700.070
662.328;31189.809;   -9.390;39292.809
662.905;30250.939;  -11.330;38235.648
663.482;27946.188;   -9.050;36212.305
664.060;25436.637;   -8.240;35944.945
664.637;26184.201;  -10.050;35170.785
665.214;29459.082;  -11.760;34197.523
665.791;29982.596;  -10.530;34549.520
666.368;28694.115;   -9.690;35118.578
666.945;29834.885;   -9.320;36019.418
667.522;30224.082;  -11.860;36048.438
668.099;31622.670;  -10.770;36243.914
668.676;31786.605;   -6.260;35958.875
669.253;34277.949;   -7.000;37384.730
669.830;35625.891;  -10.190;36779.629
670.407;32568.055;   -9.550;35231.289
670.984;32928.281;   -9.260;35544.270
671.560;30192.936;   -9.280;35466.867
672.137;26063.973;  -11.810;34280.863
672.714;27909.330;  -11.490;34632.863
673.290;31705.139;   -7.740;35135.422
673.867;31368.264;  -10.660;36114.480
674.443;31581.398;  -12.230;36152.859
675.020;31309.080;  -10.450;35327.238
675.596;29876.373;   -9.260;35795.176
676.173;28735.637;  -10.780;35430.355
676.749;28298.561;  -13.690;33549.516
677.326;28198.773;  -11.980;32210.012
677.902;27640.832;   -8.630;32068.871
678.478;29376.445;  -10.730;32583.891
679.054;30082.039;  -10.520;32088.928
679.631;29489.842;  -11.920;30978.848
680.207;29715.338;   -7.490;33160.887
680.783;31504.320;   -9.860;35570.363
681.359;32854.824;  -13.380;36125.184
681.935;33342.613;  -12.480;35240.922
682.511;32432.229;   -7.900;34429.961
683.087;31235.930;   -7.710;34463.680
683.663;30964.512;  -11.480;34648.898
684.239;30013.516;  -14.090;34546.457
684.815;28958.729;   -7.560;35586.375
685.390;29252.885;   -9.910;35821.895
685.966;30514.025;  -11.159;35085.871
686.542;31934.916;  -11.169;34198.230
687.118;33228.398;   -5.959;32847.707
687.693;32281.293;  -10.329;32794.027
688.269;33184.793;  -12.059;33072.367
688.844;33387.102;  -10.909;33141.664
689.420;30739.844;   -8.019;33965.742
689.995;29355.617;   -8.399;34655.523
690.571;30833.895;  -10.949;33576.742
691.146;30455.166;   -9.619;32657.219
691.722;28981.615;   -8.999;32526.979
692.297;28339.506;  -11.589;33014.617
692.872;28305.033;  -11.739;34012.254
693.448;31049.563;  -11.059;34237.434
694.023;31469.670;  -10.139;34142.672
694.598;29470.889;   -9.029;34132.031
695.173;30709.025;  -13.319;34205.250
695.748;31295.375;  -10.169;32882.488
696.323;28953.951;   -8.339;32864.906
696.898;27107.984;   -8.169;33170.004
697.473;27534.658;  -12.309;32432.984
698.048;27650.455;  -10.989;31649.303
698.623;26545.619;   -9.329;30778.141
699.198;27536.211;   -9.849;31140.119
699.773;28529.041;  -12.329;31764.299
700.348;29756.355;  -10.389;31780.816
700.922;30048.672;   -9.269;32046.375
701.497;30936.732;   -9.329;32603.574
702.072;32055.438;  -10.789;34799.871
702.646;31130.639;  -10.839;35793.172
703.221;30495.332;   -9.099;35201.590
703.795;32477.596;  -10.939;34764.527
704.370;29954.324;  -12.859;34307.367
704.944;28345.871;  -11.559;33509.887
705.519;29293.053;   -7.939;31388.584
706.093;31471.990;  -10.499;31340.104
706.668;33712.883;  -11.289;32630.281
707.242;33160.102;  -11.509;32728.779
707.816;31175.408;   -9.639;32947.238
708.390;29878.193;  -11.429;33277.855
708.965;29348.896;  -11.869;33834.336
709.539;30934.236;  -11.689;33709.273
710.113;31230.264;  -10.478;33044.313
710.687;30359.506;  -10.228;31953.992
711.261;29524.180;  -13.698;30505.949
711.835;29937.336;  -13.378;30262.369
712.409;28908.307;   -9.698;31254.447
712.983;28388.857;  -11.898;32754.986
713.557;30823.619;  -15.138;34018.824
714.131;29088.139;  -14.098;34579.625
714.704;28534.070;   -9.958;33890.262
715.278;30369.645;  -10.028;33531.102
715.852;28967.539;  -11.148;33601.660
716.425;27712.729;   -9.068;33515.117
716.999;26366.270;  -10.038;33185.555
717.573;25937.752;   -9.798;33905.996
718.146;25460.336;  -12.378;35199.293
718.720;26033.006;  -11.918;35060.551
719.293;26484.221;   -8.088;34973.230
719.867;28788.973;  -10.888;36394.449
720.440;30615.877;  -11.938;36663.008
721.013;31236.213;  -12.818;35102.426
721.587;28949.166;  -10.298;33985.266
722.160;27143.156;  -10.048;33524.965
722.733;26513.168;  -12.108;32987.043
723.306;26795.533;  -10.818;33066.301
723.880;28457.508;   -8.908;33399.500
724.453;28074.449;   -9.878;33468.297
725.026;28249.486;  -11.188;33816.637
725.599;31031.582;  -11.678;32797.996
726.172;30420.945;   -9.618;33187.434
726.745;27745.814;   -8.258;35136.613
727.318;27343.990;  -12.978;35751.730
727.891;26862.734;  -12.148;35890.430
728.463;26046.230;   -8.968;34822.090
729.036;25956.527;  -10.188;32895.086
729.609;25909.541;  -11.788;31823.225
730.182;23942.652;  -11.788;31445.283
730.754;22596.178;  -10.268;32373.223
731.327;22727.875;   -9.998;33676.820
731.900;24021.453;  -12.228;33417.000
732.472;24045.979;  -13.848;31978.498
733.045;23232.031;   -8.698;30368.777
733.617;22723.184;  -10.607;30574.215
734.190;24506.258;  -11.507;31280.975
734.762;25440.080;  -13.647;31674.412
735.334;26774.395;   -9.767;31247.291
735.907;27322.955;   -9.897;29876.211
736.479;26961.947;  -11.637;29808.488
737.051;27942.998;   -9.567;30233.547
737.623;27503.920;   -8.187;31469.086
738.195;26275.732;  -11.187;31784.225
738.768;24928.600;  -12.337;32120.523
739.340;23202.648;  -12.227;32094.342
739.912;22376.525;  -11.057;31312.680
740.484;22349.410;  -10.207;31946.238
741.056;22080.467;  -10.047;32984.059
741.628;23214.387;  -13.627;33897.715
742.199;24220.436;   -7.177;33213.016
742.771;26473.230;  -10.797;31369.113
743.343;27291.270;  -11.997;31865.473
743.915;26873.078;  -12.867;32388.631
744.487;24256.240;   -7.617;31079.568
745.058;21416.277;   -9.557;30570.107
745.630;22391.871;   -9.877;29970.127
746.201;24003.842;  -14.177;29186.766
746.773;24656.369;   -9.237;28805.723
747.344;22913.551;   -9.847;29591.223
747.916;21157.361;  -11.657;31412.201
748.487;22151.965;  -10.587;32194.898
749.059;23832.697;   -8.707;32533.719
749.630;23945.148;  -10.537;32158.518
750.201;23269.271;  -11.687;30855.395
750.773;22117.668;  -11.647;28622.555
751.344;21964.531;   -7.147;28405.732
751.915;23973.752;   -9.757;28461.551
752.486;25120.939;  -12.427;27842.850
753.057;24127.174;  -12.227;27845.008
753.628;24241.764;  -10.417;27728.107
754.199;23750.668;  -11.767;27381.086
754.770;23231.111;  -11.187;25882.203
755.341;22222.195;  -10.507;25886.184
755.912;20653.840;   -9.387;26050.861
756.483;19092.969;  -10.647;26798.779
757.054;19474.588;  -11.837;27048.238
757.625;19433.555;  -12.716;26294.838
758.195;19114.318;   -9.666;26142.076
758.766;19351.217;   -8.656;26392.234
759.337;18926.490;  -12.856;26334.594
759.907;18822.314;  -13.366;27579.652
760.478;18618.570;   -8.576;28352.770
761.048;19674.262;  -10.526;27325.088
761.619;19790.568;  -11.116;26460.428
762.189;18393.318;  -12.136;26029.826
762.760;18132.527;   -9.456;26430.145
763.330;18690.049;   -7.136;26670.902
763.900;18888.537;  -11.786;26603.021
764.471;18346.672;  -11.546;25542.740
765.041;17366.525;   -8.096;24358.459
765.611;16579.055;   -8.876;23991.297
766.181;16595.021;  -12.196;24470.236
766.751;16429.143;  -11.636;24845.975
767.321;17346.727;  -10.156;24533.633
767.891;16733.141;  -11.766;24916.492
768.461;16967.910;  -14.936;24776.771
769.031;18050.986;  -12.356;24757.988
769.601;18680.836;   -7.526;24181.088
770.171;18436.816;  -10.766;23670.387
770.741;17707.268;  -13.176;22960.045
771.311;17284.348;  -10.616;22917.523
771.880;17514.055;   -9.576;23562.941
772.450;17125.387;  -10.336;24216.500
773.020;16697.984;  -13.516;24140.398
773.589;17235.846;  -13.466;24414.857
774.159;17082.156;   -8.686;23858.717
774.729;15800.465;   -9.476;22942.135
775.298;14060.024;  -13.666;22324.033
775.867;13832.423;  -11.716;21140.313
776.437;13981.502;   -9.906;20838.092
777.006;13243.934;  -12.166;20599.510
777.576;12748.212;  -12.356;20508.809
778.145;12663.519;  -11.646;20732.947
778.714;13093.604;   -8.226;21062.465
779.283;14120.027;   -9.556;20949.664
779.853;14726.381;  -14.116;20508.623
780.422;14169.810;  -11.506;20649.082
780.991;13771.077;   -9.556;21527.520
781.560;13465.158;   -9.095;22632.658
782.129;13288.533;  -12.135;23048.277
782.698;13173.972;  -10.865;23438.555
783.267;12858.748;   -9.335;23267.734
783.836;12930.501;  -11.045;22415.133
784.404;13579.248;  -13.865;20443.152
784.973;12887.208;  -13.095;19699.150
785.542;11569.609;  -11.575;19763.828
786.111;10947.922;   -9.705;20341.408
786.679;11603.235;  -12.105;20207.967
787.248;11855.285;  -12.455;19516.465
787.817;11557.564;  -11.535;18900.363
788.385;11692.391;   -9.765;17879.121
788.954;11729.180;  -14.005;17658.301
789.522;11186.894;  -11.955;17788.879
790.090;11401.504;  -10.135;18118.277
790.659;12334.273;  -10.975;18338.736
791.227;12228.730;  -13.375;18508.615
791.795;11607.993;  -12.375;17898.254
792.364;11099.548;  -10.725;17295.133
792.932;11272.446;   -9.715;16822.051
793.500;11412.388;  -12.675;17040.148
794.068;11186.213;  -13.495;17179.787
794.636;10051.760;  -10.885;16664.246
795.204; 9010.771;  -11.045;16524.545
795.772; 9624.731;  -13.175;17274.564
796.340;10747.302;  -12.445;17891.002
796.908;10585.113;   -9.735;17648.561
797.476;10942.522;   -9.815;17064.080
798.044;11743.009;  -13.985;16672.777
798.612;11577.984;  -13.115;17023.996
799.180;10333.714;  -10.185;16561.615
799.747; 9348.285;   -9.055;15962.773
800.315; 8755.219;  -12.385;15296.992
800.883; 9038.098;  -15.035;14801.771
801.450; 9314.021;  -10.365;14534.430
802.018; 9419.235;   -9.855;14173.248
802.585; 9587.399;  -11.905;14029.547
803.153; 9175.121;  -11.585;13836.846
803.720; 8582.602;   -9.095;13567.324
804.287; 8680.735;   -9.135;13360.622
804.855; 8998.504;  -11.604;13681.981
805.422; 9066.090;  -11.794;13536.560
805.989; 8882.289;  -10.734;13355.958
806.556; 8443.707;  -10.444;13747.896
807.124; 8337.618;  -12.764;13987.376
807.691; 8882.568;  -12.964;14038.674
808.258; 9244.824;  -11.134;14120.152
808.825; 9433.251;   -9.854;13860.111
809.392; 9133.869;  -10.504;13268.790
809.959; 8691.669;  -13.054;12680.389
810.526; 8516.244;   -8.294;12427.308
811.093; 8159.023;   -8.394;12030.105
811.659; 7390.334;  -12.304;11653.664
812.226; 7220.939;  -13.944;11637.183
812.793; 7780.387;  -10.484;11611.521
813.360; 7904.491;  -10.144;11885.181
813.926; 7187.492;  -11.684;12770.539
814.493; 6551.409;  -13.644;12677.638
815.060; 6414.808;   -9.724;11974.336
815.626; 6758.796;   -9.854;11594.715
816.193; 6783.890;  -13.254;11579.474
816.759; 6768.003;  -13.204;11666.972
817.325; 6552.516;   -9.434;11325.530
817.892; 6240.468;  -10.134;11105.369
818.458; 6162.434;  -13.474;10843.928
819.024; 6149.546;  -11.854;10714.406
819.591; 6445.731;  -10.244;10469.165
820.157; 6565.646;  -10.704;10235.523
820.723; 6837.660;  -12.324;10847.563
821.289; 7230.568;   -9.444;11040.980
821.855; 7262.809;   -8.374;10357.100
822.421; 6885.376;  -10.234; 9978.918
822.987; 6664.543;  -13.294; 9754.177
823.553; 6533.860;  -10.884;10065.755
824.119; 6104.563;   -8.884;10036.294
824.685; 5937.268;   -6.784;10029.192
825.251; 5891.001;  -12.004;10199.230
825.816; 5987.880;  -11.474; 9820.189
826.382; 5739.008;   -9.174; 9297.248
826.948; 5434.108;   -9.214; 9381.347
827.513; 5206.129;  -10.774; 9450.726
828.079; 5153.073;  -11.924; 9472.444
828.645; 5240.624;  -10.543; 9292.643
829.210; 5438.848;  -10.533; 9065.341
829.776; 5464.095;  -10.753; 9132.620
830.341; 5376.899;  -10.173; 9092.878
830.906; 5471.460;  -10.743; 9078.557
831.472; 5355.916;  -11.113; 8534.535
832.037; 4862.586;  -10.603; 8677.874
832.602; 4769.912;  -13.323; 8628.692
833.167; 5126.879;  -10.823; 8879.031
833.733; 5097.678;  -10.113; 9189.790
834.298; 4838.619;  -13.583; 9052.608
834.863; 4694.670;  -12.703; 8895.087
835.428; 4569.445;  -10.523; 8824.266
835.993; 4511.434;   -6.963; 8845.385
836.558; 4608.662;  -10.763; 8888.563
837.123; 4728.634;   -9.903; 8966.582
837.688; 4575.122;   -9.913; 8617.860
838.253; 4432.297;  -10.283; 8590.699
838.817; 4582.114;  -12.963; 8443.797
839.382; 4758.581;  -14.243; 8799.356
839.947; 4635.753;  -10.733; 8810.595
840.511; 4712.295;   -9.383; 8796.394
841.076; 4741.696;  -12.563; 8347.231
841.641; 4555.010;  -12.953; 8224.330
842.205; 4276.737;   -7.043; 8223.349
842.770; 4231.669;   -8.163; 8622.107
843.334; 4280.942;  -12.503; 8410.386
843.898; 4258.385;  -11.693; 8337.465
844.463; 4145.111;  -10.203; 8506.283
845.027; 4035.961;   -9.533; 8280.962
845.591; 4074.518;  -13.443; 8231.141
846.156; 3993.687;  -13.143; 7969.179
846.720; 3807.285;   -9.433; 7768.278
847.284; 3513.671;  -11.033; 7630.957
847.848; 3352.515;  -10.403; 7472.395
848.412; 3386.137;  -11.553; 7437.394
848.976; 3594.758;   -8.393; 7674.592
849.540; 3648.901;   -8.713; 7836.011
850.104; 3624.443;  -12.463; 7913.669
850.668; 3737.168;  -12.973; 7694.508
851.232; 3765.756;  -10.793; 7756.887
851.796; 3688.002;  -10.662; 7926.545
852.359; 3726.930;  -13.082; 7827.844
852.923; 3475.551;  -12.192; 7641.163
853.487; 3385.296;  -11.912; 7342.501
854.050; 3552.624;  -10.892; 7042.820
854.614; 3535.155;  -13.992; 7151.338
855.177; 3398.858;  -11.732; 7105.077
855.741; 3315.064;   -8.962; 6989.675
856.304; 3209.281;   -9.442; 6596.634
856.868; 2973.632;  -14.192; 6356.272
857.431; 2759.981;  -12.702; 6468.571
857.995; 2788.969;   -9.942; 6373.210
858.558; 2814.327;   -9.112; 6324.448
859.121; 2632.967;  -12.932; 6408.327
859.684; 2577.569;  -13.442; 6347.886
860.247; 2996.819;  -10.632; 6321.264
860.810; 3341.088;  -11.272; 6301.903
861.374; 3370.045;   -9.832; 6607.881
861.937; 3341.737;  -11.762; 6408.200
862.500; 3193.571;   -9.722; 6572.639
863.062; 2878.197;  -10.512; 6387.297
863.625; 2757.322;  -11.232; 6190.836
864.188; 2752.409;  -14.112; 5807.254
864.751; 2753.896;  -11.302; 5682.413
865.314; 2871.487;  -10.112; 5547.492
865.876; 2905.640;  -12.182; 5500.150
866.439; 2827.644;  -10.722; 5415.909
867.002; 2676.315;   -9.252; 5501.567
867.564; 2572.749;   -9.572; 5413.946
868.127; 2447.748;  -13.142; 5160.325
868.689; 2155.626;  -12.902; 5133.183
869.252; 2018.874;   -9.732; 5252.382
869.814; 2043.203;   -9.432; 5297.141
870.377; 2165.710;  -11.552; 5390.919
870.939; 2158.159;   -9.052; 5599.898
871.501; 2074.029;  -10.982; 5248.336
872.063; 2091.099;  -12.292; 4854.235
872.626; 2086.870;  -14.912; 4817.074
873.188; 2094.469;  -13.112; 4987.732
873.750; 2081.690;  -13.442; 4868.651
874.312; 2224.254;   -9.402; 4779.330
874.874; 2524.741;  -11.062; 4866.348
875.436; 2534.958;  -13.931; 4718.887
875.998; 2173.168;   -9.561; 4660.005
876.560; 1809.976;  -11.321; 4462.964
877.122; 1493.742;  -12.221; 4145.042
877.683; 1154.755;  -12.191; 4056.481
878.245; 1023.611;  -12.101; 3950.740
878.807; 1088.081;   -8.971; 4058.958
879.369; 1200.504;  -12.071; 3954.677
879.930; 1259.678;  -14.621; 3941.495
880.492; 1213.447;  -10.311; 4067.014
881.053; 1150.667;  -10.901; 3859.633
881.615; 1187.999;  -14.411; 3776.071
882.176; 1255.481;  -13.761; 3734.750
882.738; 1303.456;   -9.181; 3678.489
883.299; 1295.612;  -11.791; 3405.407
883.860; 1244.979;  -13.121; 3351.106
884.422; 1164.408;  -11.211; 3394.044
884.983; 1102.260;  -10.091; 3166.443
885.544; 1087.909;   -8.461; 3189.802
886.105; 1042.645;  -12.361; 3160.360
886.666;  976.162;  -14.141; 3093.059
887.227;  950.861;  -11.361; 2941.957
887.788;  968.415;  -11.401; 2974.836
888.349;  929.265;  -13.791; 2721.214
888.910;  841.808;  -13.191; 2696.493
889.471;  744.205;   -9.881; 2560.172
890.032;  676.850;   -9.881; 2558.190
890.593;  678.179;  -10.371; 2567.669
891.153;  683.663;  -13.301; 2460.307
891.714;  626.598;  -11.431; 2372.046
892.275;  577.726;  -11.291; 2309.505
892.835;  564.381;  -11.471; 2382.543
893.396;  553.294;  -11.541; 2295.502
893.956;  547.016;  -11.181; 2162.420
894.517;  532.618;  -11.741; 2125.439
895.077;  488.151;  -11.671; 2086.978
895.638;  440.948;  -11.311; 2126.316
896.198;  422.146;   -9.831; 1838.275
896.758;  422.191;   -8.421; 1892.813
897.319;  416.693;  -12.351; 1792.232
897.879;  398.816;  -13.511; 1762.751
898.439;  373.594;  -12.001; 1661.149
898.999;  353.374;  -10.180; 1781.468
899.559;  339.080;  -12.030; 1703.347
900.119;  330.497;  -15.710; 1537.525
900.679;  310.650;   -8.900; 1638.384
901.239;  282.762;   -8.340; 1527.902
901.799;  270.433;  -13.910; 1456.441
902.359;  261.275;  -13.460; 1357.140
902.919;  256.265;  -11.490; 1331.118
903.479;  252.814;  -12.110; 1317.257
904.038;  245.428;  -11.720; 1262.595
904.598;  230.771;  -13.610; 1152.034
905.158;  219.827;  -11.040; 1240.893
905.717;  213.459;  -10.900; 1233.691
906.277;  209.122;  -15.080; 1217.330
906.836;  206.988;  -13.380; 1222.408
907.396;  204.005;  -10.780; 1193.047
907.955;  195.760;   -8.500; 1182.526
908.515;  189.397;  -12.760; 1099.364
909.074;  185.948;  -11.900; 1092.863
909.633;  183.728;   -8.950; 1069.121
910.192;  178.817;   -8.770; 1196.460
910.752;  174.715;  -12.390; 1029.960
911.311;  172.566;  -13.680; 1009.780
911.870;  167.111;  -12.370;  971.460
912.429;  163.960;  -10.900; 1094.080
912.988;  161.967;  -11.690; 1081.060
913.547;  159.317;  -13.240;  940.380
914.106;  157.385;  -11.990;  999.420
914.665;  156.699;   -9.990;  984.020
915.224;  155.688;  -12.880; 1035.760
915.782;  154.792;  -12.350;  922.560
916.341;  152.156;   -9.110; 1049.840
916.900;  147.554;   -9.270;  925.260
917.458;  144.344;  -13.240;  884.220
918.017;  142.958;  -13.550;  942.600
918.576;  142.402;  -12.320;  904.440
919.134;  142.409;  -11.490;  837.980
919.693;  141.449;  -13.670;  893.060
920.251;  141.521;  -15.470;  876.500
920.809;  140.560;  -11.290;  839.580
921.368;  140.203;  -10.210;  885.360
921.926;  140.909;  -12.140;  842.940
922.484;  140.995;  -13.080;  903.360
923.042;  140.534;  -11.720;  880.340
923.601;  141.212;   -7.480;  998.680
924.159;  140.100;  -11.570;  935.560
924.717;  139.713;  -13.840;  841.080
925.275;  140.685;  -10.640;  903.240
925.833;  139.476;  -11.540;  779.320
926.391;  139.895;  -12.960;  938.380
926.949;  140.814;  -14.130;  857.680
927.506;  140.689;  -11.750;  903.500
928.064;  139.403;  -10.250;  877.580
928.622;  138.221;  -13.030;  880.100
929.180;  139.996;  -13.400;  814.180
929.737;  141.940;  -10.700;  808.540
930.295;  142.440;  -10.070;  928.480
930.853;  141.532;  -11.960;  849.100
931.410;  141.447;  -13.120;  821.120
931.968;  142.447;  -10.770;  940.660
932.525;  143.531;  -10.680;  909.380
933.082;  146.459;  -13.130;  811.440
933.640;  153.094;  -13.210;  925.900
934.197;  153.456;  -11.060;  886.360
934.754;  153.001;   -9.580;  897.780
935.312;  153.613;  -14.000;  863.340
935.869;  157.105;  -10.710; 1012.980
936.426;  154.919;   -9.860;  872.800
936.983;  153.211;   -9.710;  889.020
937.540;  150.993;  -13.990;  838.280
938.097;  153.006;  -14.040;  940.120
938.654;  155.122;  -10.310;  898.860
939.211;  154.377;  -10.560;  952.480
939.768;  154.059;  -13.900;  915.420
940.324;  155.118;  -14.760;  904.200
940.881;  160.061;  -10.370;  878.500
941.438;  165.301;   -8.260; 1021.200
941.995;  166.405;  -12.540;  992.560
942.551;  165.491;  -14.670;  875.620
943.108;  165.484;  -10.450;  937.920
943.664;  165.157;  -10.750;  869.340
944.221;  171.361;  -11.550; 1088.140
944.777;  173.627;  -14.770;  869.680
945.334;  173.430;  -12.820;  884.840
945.890;  169.719;  -10.130;  946.480
946.446;  168.297;  -13.470;  947.020
947.003;  169.886;  -12.120;  964.940
947.559;  169.379;   -9.980; 1063.040
948.115;  165.105;   -9.080; 1026.540
948.671;  162.116;  -10.830;  967.300
949.227;  160.602;  -12.440;  859.560
949.783;  159.660;  -12.910;  858.900
950.339;  161.529;  -10.270;  991.000
950.895;  161.991;  -13.630; 1023.840
951.451;  161.524;  -15.100;  925.280
952.007;  161.537;  -11.330;  998.540
952.563;  159.162;  -10.580;  937.780
953.118;  154.578;  -13.440;  904.940
953.674;  153.658;  -12.710;  935.780
954.230;  154.691;  -10.350;  949.640
954.785;  157.106;   -9.190;  936.640
955.341;  158.621;  -11.200;  998.160
955.897;  155.506;  -16.560;  834.660
956.452;  153.338;  -12.570;  953.840
957.008;  150.787;   -7.970; 1083.640
957.563;  148.425;  -11.940; 1009.540
958.118;  148.262;  -13.450;  877.700
958.674;  147.642;  -12.030;  946.780
959.229;  146.430;   -9.410; 1013.980
959.784;  145.788;  -12.000;  832.400
960.339;  144.574;  -14.780; 1001.280
960.894;  138.546;   -9.860;  963.760
961.449;  132.067;   -9.970;  859.960
962.004;  130.697;  -10.900; 1212.840
962.559;  125.731;  -13.150;  860.140
963.114;  123.751;  -13.740;  742.480
963.669;  123.780;   -9.820;  915.500
964.224;  123.046;  -13.890;  874.340
964.779;  123.967;  -12.600;  828.420
965.334;  125.610;  -10.950; 1017.860
965.888;  122.415;  -11.170;  875.360
966.443;  123.835;  -12.540;  972.380
966.998;  123.592;  -15.780;  819.460
967.552;  123.493;   -9.760;  908.380
968.107;  117.301;   -9.060;  868.300
968.661;  115.694;  -11.950;  922.440
969.216;  116.066;  -12.800;  856.280
969.770;  116.069;  -11.210;  917.200
970.324;  112.998;  -11.610;  923.140
970.879;  110.321;  -11.370;  947.180
971.433;  111.273;  -12.540;  952.720
971.987;  108.614;  -11.320;  895.340
972.541;  107.346;  -10.720;  917.100
973.095;  108.418;   -9.680; 1009.460
973.649;  108.251;  -11.440;  809.480
974.203;  107.259;  -11.210;  829.040
974.757;  108.003;  -10.240;  855.220
975.311;  108.194;  -13.720;  872.600
975.865;  109.045;  -13.770;  881.820
976.419;  107.713;  -11.690;  857.400
976.973;  106.434;   -9.510;  849.620
977.526;  107.198;  -12.620;  949.920
978.080;  104.387;  -12.010;  796.780
978.634;  103.226;  -10.170;  921.320
979.187;   98.850;   -9.020;  905.400
979.741;   98.166;   -9.820; 1018.380
980.294;   94.250;  -14.870;  789.160
980.848;   90.588;  -12.380;  717.220
981.401;   89.007;  -10.350;  816.540
981.955;   89.656;  -13.720;  844.300
982.508;   88.038;  -11.490;  746.340
983.061;   87.327;  -10.000;  915.260
983.615;   85.020;  -11.480;  798.800
984.168;   84.834;  -13.220;  770.080
984.721;   85.689;  -13.960;  880.760
985.274;   83.309;  -10.870;  867.500
985.827;   81.771;   -9.790;  834.220
986.380;   80.013;  -13.120;  721.340
986.933;   81.181;  -12.450;  864.800
987.486;   80.755;  -10.210;  861.920
988.039;   78.740;   -8.430;  863.100
988.591;   76.822;  -10.520;  893.260
989.144;   74.452;  -14.860;  737.260
989.697;   71.833;  -13.080;  758.740
990.250;   70.278;  -10.150;  858.100
990.802;   67.660;  -13.430;  755.860
991.355;   69.356;  -12.750;  974.880
991.907;   65.923;  -12.040;  864.320
992.460;   62.490;  -11.330;  753.760
993.012;   61.650;  -13.610;  749.540
993.565;   61.515;  -13.460;  711.360
994.117;   63.310;   -9.360;  950.780
994.669;   59.724;  -11.300;  701.320
995.221;   59.588;  -13.540;  791.920
995.774;   59.150;  -13.430;  787.580
996.326;   58.664;  -12.520;  740.220
996.878;   58.390;  -10.950;  838.420
997.430;   55.923;  -14.300;  699.860
997.982;   54.879;  -13.760;  750.140
998.534;   55.212;  -11.530;  739.060
999.086;   52.172;  -10.310;  738.220
999.638;   51.860;  -12.530;  661.380
1000.190;   51.747;  -11.840;  699.320
1000.741;   50.457;  -10.260;  742.700
1001.293;   49.791;   -8.860;  686.020
1001.845;   49.183;  -13.700;  676.640
1002.396;   50.302;  -12.100;  743.400
1002.948;   48.118;  -12.760;  737.400
1003.500;   47.373;  -10.380;  723.780
1004.051;   47.623;  -11.900;  907.580
1004.603;   47.396;  -12.250;  791.820
1005.154;   43.682;  -13.210;  608.980
1005.705;   42.242;  -10.950;  723.960
1006.257;   42.848;  -13.880;  707.220
1006.808;   42.836;  -12.840;  685.460
1007.359;   42.181;  -10.570;  763.240
1007.910;   39.082;   -9.620;  646.640
1008.461;   39.598;  -13.630;  732.940
1009.013;   39.324;  -17.200;  588.340
1009.564;   40.747;  -10.200;  793.520
1010.115;   37.859;  -12.570;  597.040
1010.665;   37.594;  -15.150;  602.160
1011.216;   38.367;  -14.480;  667.920
1011.767;   37.343;  -11.340;  697.920
1012.318;   37.315;   -9.780;  736.980
1012.869;   36.875;  -12.380;  679.000
1013.419;   36.133;  -15.560;  603.120
1013.970;   36.124;  -11.010;  666.640
1014.521;   35.091;  -11.610;  620.620
1015.071;   35.447;  -13.450;  670.380
1015.622;   36.156;  -13.870;  635.460
1016.172;   35.165;  -11.610;  596.820
1016.723;   33.930;  -12.120;  614.380
1017.273;   33.559;  -13.620;  604.160
1017.823;   35.193;  -14.140;  650.340
1018.374;   33.926;  -12.800;  611.760
1018.924;   32.588;  -12.340;  716.880
1019.474;   33.435;  -11.410;  718.880
1020.024;   32.912;  -14.770;  657.580
1020.574;   33.702;   -9.780;  726.160
1021.124;   32.963;   -8.560;  673.580
1021.674;   31.343;  -15.190;  559.120
1022.224;   33.779;  -13.530;  708.940
1022.774;   32.712;  -13.280;  668.820
1023.324;   32.412;  -10.690;  753.520
1023.874;   33.892;  -10.240;  875.760
1024.423;   31.653;  -12.540;  613.700
1024.973;   31.256;  -10.010;  610.760
1025.523;   29.904;  -10.550;  620.960
1026.072;   29.235;  -13.560;  606.420
1026.622;   30.962;  -15.120;  675.740
1027.172;   31.022;  -11.260;  715.660
1027.721;   29.492;  -11.410;  601.220
1028.270;   29.260;  -13.530;  663.400
1028.820;   30.081;  -13.680;  638.080
1029.369;   30.147;  -13.520;  612.700
1029.918;   29.848;  -10.980;  649.840
1030.468;   29.136;  -13.530;  564.780
1031.017;   29.863;  -13.170;  634.800
1031.566;   28.860;  -12.200;  608.900
1032.115;   29.374;   -9.960;  694.500
1032.664;   27.060;  -13.210;  596.480
1033.213;   28.910;  -12.500;  735.420
1033.762;   28.401;  -11.910;  635.620
1034.311;   27.481;   -9.640;  677.220
1034.860;   27.303;  -13.310;  691.000
1035.408;   28.595;  -11.830;  722.720
1035.957;   28.373;  -12.000;  719.540
1036.506;   25.397;  -11.690;  530.800
1037.055;   28.928;  -10.990;  844.320
1037.603;   27.636;  -15.120;  664.000
1038.152;   25.892;  -12.450;  534.760
1038.700;   25.920;  -10.560;  585.740
1039.249;   25.386;  -11.080;  681.220
1039.797;   26.219;  -12.540;  633.360
1040.345;   25.794;  -11.920;  705.420
1040.894;   25.165;  -11.410;  625.300
1041.442;   25.421;  -14.320;  632.200
1041.990;   25.452;  -16.240;  559.160
1042.538;   24.375;  -11.680;  536.180
1043.087;   23.684;  -10.760;  570.860
1043.635;   24.858;  -11.850;  670.500
1044.183;   23.950;  -15.480;  586.400
1044.731;   24.171;  -11.770;  576.000
1045.279;   23.332;  -13.090;  674.920
1045.827;   25.181;  -12.440;  892.400
1046.374;   23.571;  -13.840;  515.420
1046.922;   22.809;  -13.220;  590.580
1047.470;   23.530;  -10.230;  691.300
1048.018;   23.306;  -14.590;  647.960
1048.565;   24.478;  -12.050;  708.600
1049.113;   23.177;  -11.650;  557.000
1049.660;   22.391;  -10.510;  629.660
1050.208;   22.457;  -13.310;  675.640
1050.755;   22.976;  -15.900;  606.580
1051.303;   22.842;  -11.430;  686.820
1051.850;   22.029;   -8.480;  635.120
1052.397;   19.992;  -15.010;  473.960
1052.945;   21.803;  -13.960;  617.760
1053.492;   23.374;  -13.150;  741.840
1054.039;   21.876;   -9.630;  720.180
1054.586;   21.410;  -13.680;  557.240
1055.133;   22.019;  -14.570;  693.140
1055.680;   22.796;  -13.820;  646.620
1056.227;   20.135;  -11.730;  542.780
1056.774;   22.215;  -12.480;  794.980
1057.321;   20.996;  -13.930;  523.260
1057.868;   20.757;  -11.690;  651.320
1058.415;   19.862;   -9.520;  651.980
1058.961;   19.995;  -13.160;  678.940
1059.508;   20.687;  -12.920;  643.820
1060.055;   20.389;  -11.920;  581.780
1060.601;   19.467;  -11.500;  624.300
1061.148;   19.021;  -14.330;  616.820
1061.694;   20.327;  -16.870;  592.580
1062.241;   20.821;  -10.330;  596.320
1062.787;   19.475;  -10.620;  663.140
1063.334;   20.867;  -10.110;  808.560
1063.880;   19.782;  -13.400;  668.360
1064.426;   20.172;  -10.680;  706.820
1064.972;   18.113;   -9.920;  601.340
1065.518;   17.573;  -10.980;  566.640
1066.065;   19.036;  -14.890;  624.460
1066.611;   18.125;  -12.870;  598.800
1067.157;   18.631;  -12.950;  641.860
1067.703;   17.946;  -13.540;  668.480
1068.249;   18.793;  -13.540;  605.220
1068.794;   18.884;  -12.600;  626.880
1069.340;   17.506;  -10.620;  578.960
1069.886;   17.340;  -12.830;  590.700
1070.432;   17.243;  -14.870;  541.720
1070.977;   16.993;  -11.980;  601.080
1071.523;   16.806;   -8.200;  573.060
1072.068;   16.127;  -12.330;  582.000
1072.614;   16.884;  -16.370;  527.760
1073.160;   18.500;  -11.100;  687.040
1073.705;   16.138;  -10.480;  572.520
1074.250;   15.614;  -14.520;  559.900
1074.796;   17.486;  -11.460;  655.160
1075.341;   17.762;  -11.950;  664.100
1075.886;   15.665;  -11.460;  594.240
1076.431;   15.547;  -13.770;  649.880
1076.976;   16.942;  -12.680;  639.220
1077.521;   16.033;  -13.170;  583.080
1078.067;   14.452;  -10.860;  579.400
1078.612;   15.138;  -13.920;  661.620
1079.156;   16.334;  -13.880;  601.540
1079.701;   16.068;  -13.120;  693.260
1080.246;   16.370;   -9.940;  696.300
1080.791;   15.297;  -14.740;  625.020
1081.336;   15.472;  -13.750;  659.320
1081.880;   15.715;  -13.400;  649.680
1082.425;   13.593;  -12.220;  573.480
1082.970;   15.417;  -11.610;  717.040
1083.514;   14.784;  -13.580;  597.000
1084.059;   14.648;  -12.810;  586.720
1084.603;   13.349;  -12.320;  565.840
1085.147;   14.150;  -13.190;  645.220
1085.692;   15.887;  -12.480;  716.800
1086.236;   12.986;  -13.020;  503.140
1086.780;   14.852;   -9.190;  751.440
1087.325;   13.512;  -12.480;  654.620
1087.869;   14.419;  -12.450;  610.700
1088.413;   14.897;  -12.240;  705.040
1088.957;   12.238;   -9.020;  543.400
1089.501;   14.450;  -10.320;  766.640
1090.045;   14.513;  -12.720;  726.480
1090.589;   11.486;  -13.690;  569.920
1091.133;   12.643;  -10.020;  673.340
1091.676;   12.794;  -12.330;  591.940
1092.220;   12.684;  -14.970;  600.920
1092.764;   13.737;  -12.430;  706.960
1093.307;   12.682;   -9.800;  673.780
1093.851;   10.875;  -14.970;  556.540
1094.395;   13.516;  -15.310;  683.140
1094.938;   12.365;  -10.370;  632.520
1095.482;   11.875;  -11.050;  559.800
1096.025;   12.877;  -11.840;  710.880
1096.568;   13.580;  -12.840;  779.280
1097.112;   10.240;  -14.700;  508.180
1097.655;   12.067;   -8.720;  603.000
1098.198;   10.147;  -13.610;  600.180
1098.741;   11.246;  -13.350;  612.860
1099.285;   11.707;  -11.230;  657.300
1099.828;    9.571;  -11.840;  439.400
1100.371;   10.225;  -10.840;  608.160
1100.914;   11.700;  -14.190;  682.660
1101.457;   11.851;  -11.240;  679.900
1101.999;    9.186;  -11.270;  584.680
1102.542;   10.336;  -11.480;  641.440
1103.085;   10.711;  -11.750;  658.500
1103.628;   11.943;  -11.400;  762.060
1104.170;    9.680;  -10.490;  588.280
1104.713;    9.776;  -10.600;  646.700
1105.256;   10.130;  -14.360;  557.440
1105.798;    9.199;  -13.210;  499.980
1106.341;   10.581;  -10.270;  728.900
1106.883;    8.995;  -12.200;  521.340
1107.425;   10.064;  -13.110;  668.180
1107.968;    9.279;  -12.840;  612.380
1108.510;    9.417;   -6.480;  684.960
1109.052;    8.097;  -13.940;  612.620
1109.594;    9.202;  -13.690;  554.440
1110.136;    9.905;  -11.880;  643.220
1110.679;    7.118;   -9.500;  633.080
1111.221;    8.550;  -14.160;  604.460
1111.763;    8.962;  -13.980;  559.220
1112.304;    8.789;  -13.880;  547.140
1112.846;    8.695;  -12.210;  666.240
1113.388;   10.930;  -11.390;  942.180
1113.930;    9.065;  -14.540;  694.200
1114.472;    9.172;  -12.640;  606.540
1115.013;    6.260;  -11.620;  551.280
1115.555;    6.581;  -13.640;  587.100
1116.097;    6.994;  -15.380;  579.480
1116.638;    8.479;  -12.640;  684.600
1117.180;    7.679;   -9.850;  667.740
1117.721;    6.813;  -13.690;  568.580
1118.262;    9.047;  -12.680;  677.960
1118.804;    8.673;  -12.530;  637.340
1119.345;    6.677;  -11.690;  578.400
1119.886;    7.478;  -13.380;  704.040
1120.427;    7.080;  -14.070;  589.020
1120.969;    6.641;  -13.500;  597.920
1121.510;    5.691;  -11.480;  563.060
1122.051;    6.464;  -12.830;  723.580
1122.592;    5.897;  -14.290;  655.420
1123.133;    5.888;  -12.400;  547.940
1123.673;    6.695;  -10.130;  706.480
1124.214;    5.663;  -12.930;  612.460
1124.755;    7.413;  -14.380;  639.460
1125.296;    6.870;  -14.000;  627.320
1125.836;    6.742;  -10.070;  691.500
1126.377;    5.283;  -12.640;  599.660
1126.918;    6.126;  -12.960;  614.980
1127.458;    6.416;  -13.350;  622.220
1127.999;    6.008;  -10.750;  656.980
1128.539;    5.781;  -12.350;  694.240
1129.079;    5.892;  -14.860;  632.720
1129.620;    4.973;  -13.840;  558.100
1130.160;    3.812;  -12.330;  539.480
1130.700;    5.692;  -14.530;  640.840
1131.240;    6.600;  -12.530;  643.700
1131.781;    5.373;  -14.450;  619.680
1132.321;    4.693;   -9.790;  599.120
1132.861;    3.458;  -14.860;  564.200
1133.401;    4.257;  -14.290;  593.940
1133.941;    5.144;  -11.750;  626.280
1134.481;    3.752;   -9.920;  597.580
1135.020;    3.551;  -12.290;  609.160
1135.560;    4.467;  -11.650;  674.940
1136.100;    4.048;  -16.270;  501.160
1136.640;    2.389;  -10.890;  510.480
1137.179;    3.603;  -14.180;  537.960
1137.719;    4.413;  -16.250;  605.400
1138.258;    4.488;  -14.230;  587.360
1138.798;    4.408;   -9.090;  663.780
1139.337;    2.792;  -15.130;  482.840
1139.877;    4.381;  -13.680;  642.360
1140.416;    6.181;  -11.320;  878.060
1140.955;    2.412;  -10.860;  535.380
1141.494;    2.909;  -12.920;  669.280
1142.034;    3.727;  -13.930;  583.520
1142.573;    4.272;  -11.440;  646.280
1143.112;    2.271;  -12.000;  553.480
1143.651;    2.977;  -13.670;  536.480
1144.190;    4.603;  -12.730;  691.640
1144.729;    3.190;  -14.560;  607.420
1145.267;    2.850;  -11.830;  584.900
1145.806;    3.285;  -12.230;  637.040
1146.345;    2.818;  -14.130;  635.020
1146.884;    2.806;  -11.590;  622.500
1147.422;    1.711;  -12.550;  533.060
1147.961;    2.982;  -11.180;  708.460
1148.500;    4.046;  -11.510;  669.720
1149.038;    3.700;  -11.640;  632.500
1149.577;    2.265;  -10.130;  698.640
1150.115;    0.231;  -13.970;  452.280
1150.653;    2.447;  -14.520;  607.340
1151.192;    2.497;  -12.810;  552.920
1151.730;    2.133;   -9.100;  652.560
1152.268;    2.003;  -12.220;  589.520
1152.806;    2.346;  -14.140;  571.180
1153.344;    0.624;  -12.350;  577.640
1153.882;    1.396;   -8.980;  600.060
1154.421;   -0.346;  -15.190;  470.620
1154.958;    1.076;  -15.210;  595.240
1155.496;    2.602;  -12.850;  645.280
1156.034;    1.113;   -9.940;  721.880
1156.572;    2.241;  -13.570;  667.060
1157.110;    1.091;  -14.590;  473.940
1157.647;    2.520;  -13.030;  676.960
1158.185;    1.140;  -12.140;  564.320
1158.723;   -1.088;  -14.390;  509.200
1159.260;    1.350;  -14.090;  701.700
1159.798;    1.770;  -11.920;  658.160
1160.335;    0.188;  -11.110;  631.820

