
Integration time [ms]:   3.276
Averaging Nr. [scans]: 1000
Smoothing Nr. [pixels]: 0
Data measured with spectrometer [name]: 7414430SP
Wave   ;Sample   ;Dark     ;Reference
[nm]   ;[counts] ;[counts] ;[counts] 

288.544;  157.156;    7.793;  793.890
289.143;  161.186;    7.462;  681.602
289.742;  161.264;    8.602;  828.814
290.341;  148.943;    1.321;  789.841
290.940;  139.491;   -0.709;  730.702
291.538;  140.249;    0.881;  881.108
292.137;  139.725;    0.122;  792.581
292.736;  141.553;   -1.929;  975.101
293.335;  138.491;   -8.229;  735.086
293.934;  140.436;   -5.279;  781.677
294.532;  140.253;   -1.369; 1031.958
295.131;  126.706;   -7.641;  834.394
295.730;  126.639;   -8.420;  809.588
296.328;  123.303;   -5.611;  783.442
296.927;  122.398;   -5.781;  779.652
297.525;  124.583;   -6.361;  781.236
298.124;  115.752;  -11.382;  654.009
298.722;  120.438;   -7.641;  761.933
299.321;  116.744;   -6.811;  708.597
299.919;  113.166;   -6.991;  751.918
300.518;  110.427;  -10.362;  689.338
301.116;  111.784;   -9.581;  691.381
301.715;  113.133;   -4.891;  730.222
302.313;  112.049;   -8.801;  704.943
302.911;  106.836;   -8.522;  733.830
303.509;  111.329;   -6.171;  925.627
304.108;  109.753;   -7.311;  760.383
304.706;  108.510;   -8.321;  801.664
305.304;  104.330;  -10.222;  796.707
305.902;  108.249;   -6.021;  784.484
306.500;  102.737;   -4.971;  728.200
307.098;  102.502;   -7.061;  746.560
307.696;  100.358;   -8.801;  780.432
308.294;  101.374;   -6.411;  731.359
308.892;  103.118;   -2.901;  759.769
309.490;   98.855;   -5.041;  712.161
310.088;   97.647;   -5.002;  788.444
310.686;  102.111;   -2.041;  821.749
311.284;   97.027;   -2.351;  766.040
311.882;   95.282;   -4.422;  731.225
312.480;   91.793;   -4.192;  697.167
313.078;   92.845;   -1.172;  808.331
313.675;   93.449;   -2.601;  691.600
314.273;   88.961;   -1.312;  797.837
314.871;   88.103;   -3.942;  589.829
315.468;   86.711;   -2.802;  652.090
316.066;   88.672;   -0.701;  694.427
316.664;   82.029;   -4.362;  656.351
317.261;   86.209;   -2.872;  910.128
317.859;   81.260;   -2.022;  768.735
318.456;   81.985;   -0.531;  830.096
319.054;   78.047;   -3.912;  787.828
319.651;   76.827;   -4.752;  759.928
320.249;   75.070;   -2.602;  810.188
320.846;   72.468;   -0.821;  714.286
321.443;   70.463;   -4.642;  832.135
322.041;   67.575;   -5.002;  812.315
322.638;   65.138;   -3.982;  701.456
323.235;   65.357;   -3.411;  665.683
323.833;   62.601;   -7.361;  740.354
324.430;   58.131;   -8.611;  615.900
325.027;   58.813;   -4.061;  876.855
325.624;   59.513;   -4.031;  644.532
326.221;   56.544;   -7.481;  689.717
326.818;   55.194;   -5.281;  818.332
327.415;   58.152;   -7.460;  748.828
328.012;   57.444;   -5.510;  690.585
328.609;   55.275;   -7.880;  731.389
329.206;   54.517;   -8.331;  778.621
329.803;   54.484;   -5.121;  737.841
330.400;   56.811;   -4.510;  704.260
330.997;   57.802;   -6.441;  817.147
331.594;   56.514;   -8.831;  788.185
332.191;   61.478;   -7.621;  728.722
332.787;   65.662;   -4.591;  844.463
333.384;   64.737;   -7.412;  763.093
333.981;   64.085;   -8.293;  815.687
334.578;   67.038;   -7.052;  708.378
335.174;   68.345;   -3.102;  731.469
335.771;   67.403;   -5.943;  836.456
336.367;   65.867;   -7.393;  710.631
336.964;   70.346;   -4.063;  793.266
337.561;   67.398;   -3.813;  731.112
338.157;   63.727;   -4.654;  911.916
338.754;   62.363;   -7.934;  796.589
339.350;   60.508;   -4.414;  722.493
339.946;   61.772;   -4.664;  773.135
340.543;   54.603;   -6.375;  846.136
341.139;   47.789;   -9.815;  720.836
341.735;   43.919;   -4.526;  772.593
342.332;   44.065;   -4.895;  691.472
342.928;   44.454;   -4.295;  795.394
343.524;   36.960;   -5.476;  761.684
344.120;   33.663;   -5.856;  738.562
344.716;   36.667;   -2.155;  723.717
345.313;   34.238;   -6.275;  795.342
345.909;   29.404;   -8.815;  627.336
346.505;   30.493;   -5.305;  740.247
347.101;   30.648;   -2.674;  827.864
347.697;   31.562;   -4.344;  785.398
348.293;   26.703;   -9.975;  627.244
348.889;   26.774;   -5.774;  745.914
349.485;   25.481;   -5.004;  688.205
350.081;   26.356;   -4.704;  772.592
350.676;   21.593;   -6.635;  691.606
351.272;   26.199;   -4.504;  809.530
351.868;   25.125;   -3.914;  780.497
352.464;   23.108;   -9.044;  723.932
353.059;   19.059;   -8.314;  646.017
353.655;   21.913;   -7.024;  777.063
354.251;   22.964;   -5.343;  759.845
354.846;   17.703;   -8.604;  740.646
355.442;   15.615;   -6.945;  753.071
356.038;   17.429;   -7.564;  751.708
356.633;   17.309;   -5.814;  728.594
357.229;   15.013;   -7.364;  724.757
357.824;   14.106;   -8.024;  703.600
358.420;   12.920;   -9.384;  679.726
359.015;   13.503;   -5.104;  695.357
359.610;   14.708;   -6.854;  763.920
360.206;    7.628;  -10.185;  603.240
360.801;   11.315;   -7.054;  646.503
361.396;   12.952;   -5.034;  725.975
361.992;    7.964;   -8.284;  668.220
362.587;    5.635;   -8.625;  670.160
363.182;    8.226;   -7.674;  689.631
363.777;    8.412;   -5.164;  738.242
364.372;    8.215;   -8.604;  737.314
364.967;    4.082;   -9.055;  680.744
365.563;    8.373;   -6.114;  815.567
366.158;    5.443;   -5.814;  685.161
366.753;    6.000;   -7.854;  649.263
367.348;    4.882;   -7.804;  746.056
367.942;    4.215;   -7.954;  697.298
368.537;    3.362;   -4.984;  754.245
369.132;    2.775;   -8.564;  703.428
369.727;   -0.568;   -8.855;  638.079
370.322;    0.806;   -6.245;  580.186
370.917;    0.190;   -6.425;  710.646
371.511;    2.504;   -6.294;  861.834
372.106;   -0.129;   -7.685;  776.964
372.701;   -3.493;   -7.335;  585.988
373.296;    1.710;   -4.564;  863.135
373.890;   -2.834;  -10.235;  647.840
374.485;   -4.960;   -7.885;  691.199
375.079;   -1.231;   -7.324;  738.685
375.674;    0.068;   -3.494;  812.970
376.268;   -4.262;   -8.525;  691.759
376.863;  -10.300;  -10.086;  580.327
377.457;   -2.898;   -7.025;  662.490
378.052;   -5.775;   -3.585;  764.884
378.646;   -6.537;   -7.595;  741.167
379.240;   -6.818;   -8.335;  721.176
379.835;   -6.385;   -5.785;  636.978
380.429;   -8.089;   -4.335;  562.557
381.023;   -9.114;   -6.805;  779.205
381.617;  -11.159;   -9.195;  680.106
382.212;   -7.425;   -6.905;  685.303
382.806;   -6.589;   -3.745;  760.690
383.400;  -10.225;   -7.745;  672.281
383.994;  -11.520;   -9.765;  664.870
384.588;   -8.183;   -6.564;  697.701
385.182;   -6.218;   -5.344;  726.624
385.776;   -8.532;   -8.514;  706.875
386.370;  -11.760;   -9.555;  681.968
386.964;  -10.851;   -8.715;  684.155
387.558;   -8.475;   -6.174;  598.360
388.152;  -12.107;   -8.725;  681.959
388.745;  -10.205;   -7.965;  814.707
389.339;   -8.603;   -5.924;  747.642
389.933;   -8.033;   -5.524;  695.370
390.527;   -9.039;   -7.114;  859.029
391.120;  -14.968;  -10.725;  595.318
391.714;  -12.234;   -8.035;  711.633
392.308;   -9.636;   -3.574;  780.253
392.901;  -13.080;   -7.245;  642.460
393.495;  -15.244;   -9.285;  595.414
394.089;  -12.113;   -5.895;  760.452
394.682;  -13.632;   -4.295;  697.188
395.275;  -14.299;   -9.875;  719.927
395.869;  -15.261;   -8.485;  667.314
396.462;  -13.835;   -7.455;  616.609
397.056;   -9.160;   -5.424;  776.621
397.649;  -14.088;   -6.605;  731.575
398.242;  -11.558;   -8.224;  712.645
398.836;  -11.287;   -7.474;  766.408
399.429;  -12.456;   -7.094;  631.041
400.022;  -16.224;   -9.475;  665.902
400.615;  -13.311;   -7.145;  805.609
401.208;  -10.901;   -7.174;  691.451
401.802;  -13.956;   -5.515;  699.329
402.395;  -15.242;   -9.875;  683.502
402.988;  -15.963;   -8.845;  696.627
403.581;  -12.673;   -8.874;  646.878
404.174;  -10.330;   -5.324;  686.568
404.767;  -13.742;   -9.575;  638.583
405.360;  -15.342;  -10.965;  621.445
405.953;  -10.238;   -8.764;  759.034
406.545;   -9.878;   -7.514;  725.342
407.138;  -13.899;  -10.025;  618.350
407.731;  -12.649;  -10.034;  613.303
408.324;   -8.279;   -9.374;  660.554
408.917;  -10.073;   -6.534;  681.864
409.509;  -11.829;   -8.004;  740.396
410.102;  -13.014;   -9.875;  643.948
410.695;   -6.608;   -8.604;  665.758
411.287;   -8.338;   -6.794;  599.821
411.880;   -9.412;   -9.334;  585.421
412.472;  -12.737;  -10.254;  613.092
413.065;  -10.273;   -6.714;  629.408
413.657;   -8.539;   -7.234;  576.678
414.250;   -7.903;  -10.544;  646.681
414.842;   -9.058;   -9.744;  676.353
415.434;   -7.570;   -6.994;  570.463
416.027;   -3.649;   -5.893;  652.196
416.619;   -5.569;   -7.264;  713.400
417.211;   -4.793;  -10.374;  599.352
417.804;   -2.181;   -7.993;  628.499
418.396;   -6.472;   -7.234;  607.643
418.988;   -4.303;   -9.443;  659.238
419.580;   -7.362;  -10.724;  568.276
420.172;   -5.961;  -10.323;  536.196
420.764;   -0.831;   -8.793;  672.482
421.356;   -2.225;  -11.143;  636.898
421.948;   -3.748;   -8.293;  677.661
422.540;    2.087;   -7.893;  680.027
423.132;    0.777;   -7.082;  600.641
423.724;   -3.257;   -8.653;  561.267
424.316;    0.595;  -10.213;  621.345
424.908;    4.172;   -9.762;  591.517
425.500;    3.776;   -5.572;  647.978
426.092;    4.166;   -8.422;  648.268
426.683;    3.432;   -9.283;  684.836
427.275;    6.532;   -7.852;  641.471
427.867;    7.679;   -5.272;  668.948
428.458;    7.847;   -7.682;  732.344
429.050;    6.595;  -10.612;  680.749
429.642;    8.545;   -9.882;  743.124
430.233;    9.141;   -6.962;  569.356
430.825;   10.951;   -6.842;  724.809
431.416;    8.177;   -9.672;  698.241
432.008;   11.875;   -6.552;  651.723
432.599;   12.469;   -6.891;  656.073
433.190;    9.939;  -10.912;  637.670
433.782;    8.895;  -11.172;  590.395
434.373;   15.821;   -6.061;  884.765
434.964;   14.985;   -8.251;  602.920
435.556;   12.753;   -9.722;  634.537
436.147;   14.566;   -9.082;  758.490
436.738;   15.788;   -8.041;  701.099
437.329;   20.430;   -7.341;  721.723
437.920;   13.449;   -8.162;  666.688
438.511;   13.441;  -11.802;  564.526
439.103;   19.844;  -10.191;  623.998
439.694;   21.303;   -7.601;  681.583
440.285;   22.396;   -8.541;  764.432
440.876;   20.729;   -9.751;  845.738
441.466;   20.076;   -9.401;  575.162
442.057;   25.292;   -7.760;  665.814
442.648;   23.605;   -9.971;  746.255
443.239;   22.561;  -11.001;  620.477
443.830;   27.386;   -7.990;  704.958
444.421;   29.013;   -7.910;  655.474
445.011;   25.511;   -8.131;  693.619
445.602;   24.790;   -7.111;  743.126
446.193;   26.927;  -10.920;  488.117
446.783;   31.643;   -6.500;  640.397
447.374;   26.803;   -8.671;  692.759
447.964;   27.278;  -10.781;  713.770
448.555;   35.670;   -9.650;  822.742
449.145;   32.014;   -8.660;  662.853
449.736;   33.482;   -8.990;  803.179
450.326;   33.085;   -9.500;  713.626
450.917;   38.345;   -8.680;  675.324
451.507;   37.342;   -7.520;  600.661
452.097;   38.305;   -8.590;  746.267
452.688;   39.925;  -11.340;  742.160
453.278;   38.610;  -10.100;  566.840
453.868;   43.084;   -6.019;  793.550
454.458;   40.995;   -9.440;  651.141
455.048;   41.497;  -10.560;  711.783
455.639;   43.117;  -11.799;  567.096
456.229;   45.986;   -6.899;  710.694
456.819;   47.812;   -7.389;  751.158
457.409;   48.810;  -11.119;  773.993
457.999;   51.883;   -9.289;  737.505
458.589;   51.148;   -6.139;  686.606
459.179;   50.782;   -8.729;  717.658
459.769;   49.029;   -9.789;  627.099
460.358;   54.428;  -10.259;  797.262
460.948;   54.371;   -7.299;  689.503
461.538;   54.901;  -10.289;  660.677
462.128;   54.577;  -11.269;  664.934
462.717;   61.163;   -9.368;  710.326
463.307;   64.021;   -7.908;  705.846
463.897;   58.267;   -9.599;  656.942
464.486;   59.305;   -9.769;  837.128
465.076;   63.635;   -8.048;  733.776
465.666;   66.308;   -9.358;  652.900
466.255;   63.763;   -7.919;  785.651
466.845;   63.548;  -11.689;  666.749
467.434;   66.553;   -7.818;  725.873
468.023;   67.567;   -7.678;  658.357
468.613;   65.518;  -10.939;  713.946
469.202;   69.531;  -10.118;  646.507
469.791;   74.226;   -9.108;  737.811
470.381;   75.878;   -6.058;  742.813
470.970;   75.239;  -10.428;  711.099
471.559;   74.772;  -10.268;  733.291
472.148;   78.445;   -8.448;  675.737
472.738;   81.531;   -6.917;  765.466
473.327;   80.505;  -11.978;  637.529
473.916;   80.224;  -11.888;  737.446
474.505;   84.821;   -9.437;  751.703
475.094;   87.405;   -6.747;  806.570
475.683;   86.481;   -9.367;  797.699
476.272;   88.583;  -12.637;  730.632
476.861;   90.090;  -10.027;  706.754
477.449;   96.653;   -8.716;  728.487
478.038;   90.693;   -9.577;  692.513
478.627;   91.922;   -9.718;  714.852
479.216;   99.168;   -8.947;  769.441
479.805;  101.801;   -6.256;  783.375
480.393;  101.415;   -7.937; 1008.945
480.982;  100.927;   -7.717;  874.501
481.571;  108.259;   -9.266;  858.333
482.159;  107.896;   -7.636;  705.386
482.748;  107.687;   -9.667;  821.385
483.336;  111.973;  -10.376;  858.209
483.925;  113.722;   -7.147;  774.373
484.513;  119.504;   -7.996;  758.962
485.102;  116.527;  -10.027;  810.965
485.690;  126.195;  -10.446; 1011.050
486.278;  127.960;   -8.446;  979.329
486.867;  127.781;   -6.356;  809.662
487.455;  129.247;   -9.136;  898.229
488.043;  131.259;  -10.646;  748.361
488.631;  140.675;   -7.456; 1005.079
489.220;  144.565;   -6.636;  908.626
489.808;  144.266;  -11.036;  741.415
490.396;  153.435;  -10.246;  914.645
490.984;  159.839;   -8.556;  830.161
491.572;  171.154;   -5.886;  940.315
492.160;  178.309;   -9.486;  919.081
492.748;  191.893;  -10.976;  884.341
493.336;  214.251;   -8.776; 1019.693
493.924;  242.839;   -5.465;  958.077
494.512;  274.830;   -9.986; 1066.638
495.100;  322.445;  -10.636; 1103.280
495.687;  383.367;  -10.885; 1206.373
496.275;  437.823;   -8.126; 1150.796
496.863;  506.417;  -10.586; 1281.171
497.451;  619.089;  -11.926; 1386.805
498.038;  729.611;  -10.885; 1556.729
498.626;  823.998;   -6.315; 1741.407
499.214;  979.219;   -7.326; 2016.609
499.801; 1199.154;  -11.906; 2220.633
500.389; 1451.632;  -10.466; 2312.494
500.976; 1691.974;   -5.236; 2744.849
501.564; 2110.473;   -8.936; 3148.565
502.151; 2577.687;  -13.176; 3515.999
502.738; 3082.809;  -10.646; 3971.274
503.326; 3468.611;   -9.525; 4403.796
503.913; 3763.089;  -10.856; 5161.749
504.500; 4256.486;  -11.586; 5986.420
505.088; 4573.934;  -10.336; 6381.201
505.675; 5027.752;   -6.355; 6925.547
506.262; 5500.783;   -9.046; 7619.060
506.849; 6003.492;  -10.416; 8733.969
507.436; 6466.096;  -10.305; 9790.121
508.023; 6911.853;   -5.496; 9985.472
508.610; 7780.780;   -7.856;10434.618
509.197; 9141.771;  -10.097;11198.435
509.784;10556.195;  -10.886;12391.194
510.371;11911.438;   -9.315;13603.713
510.958;12773.731;   -9.936;14426.586
511.545;13368.897;   -9.326;15243.775
512.132;13922.440;  -10.075;15945.876
512.719;14066.621;   -7.796;16340.369
513.305;14891.119;  -10.606;18011.766
513.892;16221.883;  -11.486;19754.971
514.479;18009.178;   -9.126;20967.805
515.066;19650.453;   -6.026;22299.793
515.652;19928.275;   -8.466;22908.660
516.239;20950.666;  -10.886;23798.875
516.825;23030.141;  -11.496;25567.275
517.412;24992.516;   -5.796;28154.959
517.998;27006.939;  -10.506;28344.111
518.585;26673.465;  -10.076;27134.219
519.171;25313.766;   -8.315;27268.576
519.758;26183.455;   -8.596;28964.129
520.344;27487.898;   -8.466;30664.494
520.930;30081.430;  -11.006;32550.605
521.516;30482.762;  -10.495;35422.895
522.103;28989.027;   -5.526;38280.004
522.689;29520.490;   -8.746;37835.117
523.275;31107.145;  -11.376;37288.613
523.861;32887.047;  -11.156;37281.395
524.447;36144.348;   -8.135;37846.949
525.033;37247.344;   -7.896;38321.949
525.619;36922.801;  -12.476;38579.285
526.205;37014.848;   -9.516;40622.875
526.791;36639.879;   -6.926;42258.836
527.377;37841.023;   -8.346;42966.902
527.963;39606.582;   -8.717;42018.949
528.549;38470.090;  -11.016;42476.828
529.135;38627.719;   -8.536;41854.852
529.721;38332.391;   -9.666;41237.711
530.306;36692.559;  -10.066;41259.445
530.892;36613.387;  -11.356;41506.047
531.478;36085.664;   -6.596;43559.613
532.063;36654.145;   -8.836;47695.563
532.649;40366.797;  -10.047;50808.324
533.235;41810.832;   -9.746;51787.500
533.820;41046.395;   -6.566;52145.035
534.406;40095.031;  -10.817;51133.488
534.991;42811.609;   -9.416;49996.805
535.576;44055.836;   -9.036;48882.852
536.162;44334.906;   -6.156;46942.285
536.747;45478.184;  -11.607;45711.746
537.333;46006.801;  -11.787;48510.180
537.918;46058.164;  -12.437;50439.891
538.503;47065.648;   -7.196;50863.711
539.088;44687.418;  -10.556;50906.922
539.673;43234.348;   -8.767;52621.965
540.259;44469.570;  -10.026;52368.094
540.844;46326.848;   -7.416;50879.109
541.429;45179.371;   -9.467;52077.777
542.014;44810.109;   -9.527;52716.695
542.599;47013.016;   -9.946;52363.281
543.184;49698.730;   -7.927;53187.137
543.769;48360.270;   -9.297;54697.605
544.354;45045.727;  -10.127;53913.914
544.938;43134.625;   -9.267;49680.164
545.523;45367.324;   -6.506;47386.277
546.108;49050.785;   -9.787;49151.949
546.693;48420.367;  -11.587;51384.637
547.278;48288.461;  -10.986;51853.254
547.862;45199.395;   -8.206;51173.750
548.447;42651.922;  -10.067;51691.395
549.031;43401.203;   -9.637;52456.703
549.616;44383.801;   -9.926;52714.516
550.201;43468.180;   -6.347;52414.598
550.785;43036.082;   -7.917;52355.059
551.370;43979.840;  -10.867;54589.453
551.954;44623.164;   -9.047;58267.348
552.538;45767.563;   -7.827;59062.176
553.123;45664.895;  -10.287;58115.285
553.707;41530.633;  -12.178;56556.285
554.291;42314.156;   -8.717;56201.668
554.876;45513.488;   -7.457;55335.762
555.460;46654.285;  -10.387;54155.703
556.044;47535.012;   -9.618;53721.484
556.628;46605.504;  -11.567;53731.016
557.212;44728.496;   -8.097;54312.531
557.796;45780.504;  -11.077;53797.773
558.380;43695.773;  -11.108;56145.984
558.964;42503.797;   -9.057;57277.930
559.548;42601.352;   -6.977;56459.641
560.132;41687.203;  -11.457;54434.543
560.716;40696.867;  -11.378;54800.617
561.300;41672.176;   -9.577;57606.945
561.884;43484.164;   -7.127;58972.445
562.467;44281.602;   -7.118;57327.570
563.051;43855.348;  -13.358;54962.434
563.635;41751.121;  -10.178;52594.473
564.219;41150.953;   -7.837;50610.410
564.802;40848.480;  -11.398;49551.180
565.386;41872.520;  -12.788;48370.953
565.969;42527.590;   -9.077;48178.871
566.553;42812.520;   -6.207;49957.305
567.136;40117.336;   -8.568;50369.594
567.720;39212.719;  -11.868;49492.004
568.303;39159.395;   -8.268;50616.352
568.887;37839.730;   -8.698;50727.148
569.470;37985.926;   -6.808;51698.379
570.053;36701.652;  -13.188;52122.078
570.637;35300.070;  -12.037;52536.438
571.220;34539.063;   -8.577;51186.098
571.803;34731.887;   -8.498;51032.762
572.386;36723.469;  -10.498;49609.887
572.969;37403.527;   -9.388;48285.926
573.552;33040.855;   -8.338;47624.285
574.135;30873.633;   -8.518;45498.641
574.718;28866.967;  -13.628;41970.434
575.301;29481.277;  -10.893;41447.137
575.884;30095.588;   -8.158;40923.836
576.467;35094.723;  -10.328;45267.723
577.050;33746.961;  -13.058;48175.543
577.633;32656.594;   -9.458;47729.328
578.216;34012.598;   -8.928;47579.793
578.799;35054.352;   -9.358;47820.996
579.381;34598.500;  -11.388;48115.551
579.964;31713.949;  -11.718;47333.766
580.547;31601.527;   -8.588;46668.969
581.129;33122.938;   -8.859;44466.141
581.712;33613.293;  -10.729;44164.922
582.294;34843.340;  -11.118;46477.855
582.877;32650.152;   -5.218;48244.254
583.459;32611.711;   -8.679;47437.895
584.042;34379.188;  -10.709;46943.219
584.624;36471.105;  -11.669;46792.227
585.206;35580.668;   -8.218;46557.250
585.789;34316.980;  -10.569;45793.773
586.371;34470.887;  -11.859;43836.391
586.953;33014.398;  -10.719;42972.492
587.536;34359.898;   -7.198;42487.211
588.118;35665.129;   -8.720;42086.414
588.700;35146.805;  -10.439;43389.930
589.282;35303.887;   -9.198;43646.039
589.864;34167.098;   -9.199;43438.109
590.446;31763.893;  -11.319;43151.926
591.028;31172.867;  -11.159;42781.867
591.610;30887.404;  -11.779;42839.098
592.192;27830.338;   -7.668;42820.402
592.774;27956.395;  -11.949;40724.277
593.356;27833.000;  -12.129;39874.789
593.937;24626.273;  -10.669;39980.648
594.519;25281.268;   -6.509;42069.633
595.101;28387.455;  -10.849;42976.031
595.683;29480.119;  -11.679;44084.441
596.264;30367.426;   -9.049;43478.797
596.846;32598.252;   -8.849;43803.672
597.427;32781.738;   -9.570;42986.934
598.009;33780.230;  -12.620;42832.219
598.591;33011.770;  -10.039;42580.086
599.172;32126.104;  -10.369;43061.805
599.753;30484.648;   -9.140;41691.469
600.335;30398.795;  -11.430;40692.520
600.916;31032.230;   -9.939;39982.422
601.498;29864.021;   -8.479;40318.617
602.079;28433.965;  -10.920;40670.609
602.660;30317.977;  -11.480;41450.898
603.241;31948.234;  -11.699;41137.738
603.823;32443.059;   -9.579;38868.797
604.404;32088.287;  -10.620;38182.785
604.985;30619.678;  -10.450;38078.047
605.566;30078.178;   -9.129;38056.633
606.147;30017.541;   -7.510;37020.418
606.728;31035.982;  -10.660;37883.359
607.309;32031.242;  -11.740;38748.273
607.890;31728.639;   -9.759;38850.230
608.471;30266.209;   -8.250;37457.918
609.051;30519.297;   -9.240;36066.457
609.632;28769.568;  -12.120;35991.074
610.213;27692.285;   -9.110;37402.641
610.794;29450.766;   -8.030;38383.363
611.374;31880.061;   -8.110;40562.387
611.955;31793.207;  -13.560;38533.727
612.536;29294.076;  -11.400;36951.789
613.116;28083.451;   -8.070;37197.891
613.697;30143.609;  -10.830;38411.125
614.277;31577.193;  -11.641;38673.938
614.858;30971.635;  -13.310;37075.863
615.438;29319.318;   -7.460;35092.906
616.019;27555.402;   -7.601;33666.301
616.599;28350.439;  -12.020;34189.023
617.179;30050.748;  -11.780;36952.047
617.760;32642.158;   -8.570;39582.574
618.340;32755.498;  -11.471;38943.977
618.920;31382.637;  -11.170;37594.156
619.500;33270.359;  -11.071;37866.938
620.080;33457.660;   -7.750;37869.043
620.660;31701.414;  -12.711;36868.617
621.241;30200.254;  -10.211;36352.309
621.821;29153.109;  -10.961;35459.520
622.401;28267.859;   -7.720;35207.414
622.980;29377.342;   -8.981;35980.422
623.560;29775.527;   -9.331;37351.328
624.140;28692.348;   -9.850;34388.582
624.720;26281.072;   -7.451;32368.764
625.300;24651.529;   -9.070;32638.629
625.880;28039.357;  -12.601;34599.035
626.459;29833.424;  -11.751;36831.738
627.039;30466.973;   -9.281;38299.098
627.619;32357.752;   -8.801;38289.574
628.198;31711.182;  -12.071;37220.695
628.778;30629.100;   -9.461;37632.563
629.357;31709.475;   -8.491;38003.012
629.937;31939.383;   -9.721;38402.039
630.516;32135.037;   -9.951;37868.801
631.096;32380.793;  -11.731;35760.410
631.675;33617.195;   -8.572;35225.219
632.254;33142.148;  -11.282;35130.289
632.834;32631.137;  -13.322;35794.570
633.413;32384.959;  -10.301;35788.922
633.992;31569.738;   -8.582;34532.863
634.571;32987.078;   -8.352;33590.113
635.151;33045.840;  -11.912;34943.863
635.730;32320.617;  -10.511;35352.523
636.309;34633.219;   -7.731;35366.605
636.888;32725.502;   -9.952;36165.637
637.467;30726.178;  -11.672;37515.902
638.046;30619.195;   -8.901;39288.695
638.625;31442.092;   -7.912;38279.699
639.204;31861.518;  -10.022;37741.598
639.782;30032.766;  -12.252;38364.551
640.361;28297.670;  -10.041;36740.621
640.940;27383.203;  -11.161;34950.082
641.519;28448.811;   -9.701;34137.398
642.097;30262.723;  -11.271;35654.258
642.676;31838.371;   -8.651;35637.957
643.255;32920.461;   -8.711;36567.074
643.833;30574.346;   -9.581;37809.434
644.412;28233.941;  -13.711;37337.293
644.990;30068.051;  -11.811;37018.531
645.569;32780.242;   -9.411;36518.469
646.147;32215.574;  -10.291;36186.430
646.726;31126.811;  -12.401;36267.688
647.304;31148.617;  -10.411;36647.625
647.882;30246.102;   -9.651;39286.742
648.461;31565.957;   -9.631;39157.703
649.039;34856.109;  -11.881;35412.883
649.617;35161.184;   -9.661;34744.918
650.195;33020.930;   -9.301;35403.098
650.773;31872.482;  -10.511;35053.797
651.352;31095.693;  -11.521;33756.816
651.930;28540.654;  -12.211;31868.773
652.508;25413.686;   -9.171;33121.551
653.086;26495.848;   -9.371;33564.793
653.663;32228.340;  -13.161;34054.668
654.241;35925.191;  -13.031;35693.309
654.819;36803.699;   -9.371;36422.906
655.397;36840.809;  -10.511;38213.484
655.975;33322.168;  -10.371;39507.625
656.553;30251.922;  -10.051;39498.223
657.130;28701.691;  -10.061;40395.480
657.708;26751.387;   -9.561;39242.020
658.286;24156.576;  -11.511;38920.020
658.863;26145.518;  -10.261;40202.898
659.441;29912.160;   -7.531;39677.938
660.018;31878.100;   -9.501;40413.355
660.596;31105.580;  -13.301;39931.414
661.173;30777.508;  -11.211;39604.531
661.750;32509.900;   -9.951;39700.070
662.328;31614.719;   -9.390;39292.809
662.905;30525.836;  -11.330;38235.648
663.482;28125.037;   -9.050;36212.305
664.060;25352.863;   -8.240;35944.945
664.637;26017.596;  -10.050;35170.785
665.214;29368.754;  -11.760;34197.523
665.791;29909.734;  -10.530;34549.520
666.368;28771.270;   -9.690;35118.578
666.945;30001.211;   -9.320;36019.418
667.522;30471.217;  -11.860;36048.438
668.099;31729.453;  -10.770;36243.914
668.676;31763.857;   -6.260;35958.875
669.253;34415.551;   -7.000;37384.730
669.830;35856.082;  -10.190;36779.629
670.407;32783.707;   -9.550;35231.289
670.984;33077.004;   -9.260;35544.270
671.560;30326.773;   -9.280;35466.867
672.137;26200.994;  -11.810;34280.863
672.714;27972.131;  -11.490;34632.863
673.290;31678.994;   -7.740;35135.422
673.867;31345.059;  -10.660;36114.480
674.443;31489.352;  -12.230;36152.859
675.020;31214.197;  -10.450;35327.238
675.596;29904.469;   -9.260;35795.176
676.173;28821.061;  -10.780;35430.355
676.749;28322.838;  -13.690;33549.516
677.326;28246.463;  -11.980;32210.012
677.902;27695.207;   -8.630;32068.871
678.478;29404.582;  -10.730;32583.891
679.054;30260.012;  -10.520;32088.928
679.631;29721.193;  -11.920;30978.848
680.207;29751.279;   -7.490;33160.887
680.783;31524.504;   -9.860;35570.363
681.359;32884.484;  -13.380;36125.184
681.935;33430.547;  -12.480;35240.922
682.511;32691.639;   -7.900;34429.961
683.087;31533.764;   -7.710;34463.680
683.663;31210.871;  -11.480;34648.898
684.239;30131.775;  -14.090;34546.457
684.815;29101.557;   -7.560;35586.375
685.390;29455.129;   -9.910;35821.895
685.966;30680.301;  -11.159;35085.871
686.542;32176.781;  -11.169;34198.230
687.118;33530.516;   -5.959;32847.707
687.693;32407.141;  -10.329;32794.027
688.269;33252.629;  -12.059;33072.367
688.844;33504.785;  -10.909;33141.664
689.420;30821.775;   -8.019;33965.742
689.995;29383.342;   -8.399;34655.523
690.571;30802.719;  -10.949;33576.742
691.146;30402.506;   -9.619;32657.219
691.722;28890.084;   -8.999;32526.979
692.297;28259.891;  -11.589;33014.617
692.872;28252.326;  -11.739;34012.254
693.448;31035.980;  -11.059;34237.434
694.023;31734.090;  -10.139;34142.672
694.598;29778.611;   -9.029;34132.031
695.173;30773.781;  -13.319;34205.250
695.748;31334.521;  -10.169;32882.488
696.323;29048.869;   -8.339;32864.906
696.898;27270.727;   -8.169;33170.004
697.473;27717.566;  -12.309;32432.984
698.048;27803.836;  -10.989;31649.303
698.623;26540.234;   -9.329;30778.141
699.198;27491.631;   -9.849;31140.119
699.773;28582.824;  -12.329;31764.299
700.348;29905.170;  -10.389;31780.816
700.922;30202.916;   -9.269;32046.375
701.497;31071.539;   -9.329;32603.574
702.072;32192.850;  -10.789;34799.871
702.646;31212.799;  -10.839;35793.172
703.221;30535.365;   -9.099;35201.590
703.795;32468.199;  -10.939;34764.527
704.370;29965.523;  -12.859;34307.367
704.944;28410.186;  -11.559;33509.887
705.519;29391.756;   -7.939;31388.584
706.093;31710.875;  -10.499;31340.104
706.668;34018.301;  -11.289;32630.281
707.242;33497.004;  -11.509;32728.779
707.816;31431.979;   -9.639;32947.238
708.390;30051.641;  -11.429;33277.855
708.965;29434.279;  -11.869;33834.336
709.539;30895.674;  -11.689;33709.273
710.113;31145.355;  -10.478;33044.313
710.687;30308.609;  -10.228;31953.992
711.261;29465.373;  -13.698;30505.949
711.835;29938.871;  -13.378;30262.369
712.409;29167.727;   -9.698;31254.447
712.983;28693.367;  -11.898;32754.986
713.557;31017.941;  -15.138;34018.824
714.131;29159.121;  -14.098;34579.625
714.704;28744.861;   -9.958;33890.262
715.278;30900.598;  -10.028;33531.102
715.852;29395.732;  -11.148;33601.660
716.425;28133.027;   -9.068;33515.117
716.999;26866.961;  -10.038;33185.555
717.573;26639.986;   -9.798;33905.996
718.146;26000.330;  -12.378;35199.293
718.720;26391.133;  -11.918;35060.551
719.293;26799.844;   -8.088;34973.230
719.867;29086.281;  -10.888;36394.449
720.440;30789.439;  -11.938;36663.008
721.013;31436.449;  -12.818;35102.426
721.587;29164.434;  -10.298;33985.266
722.160;27263.961;  -10.048;33524.965
722.733;26565.814;  -12.108;32987.043
723.306;26878.311;  -10.818;33066.301
723.880;28630.025;   -8.908;33399.500
724.453;28302.904;   -9.878;33468.297
725.026;28571.807;  -11.188;33816.637
725.599;31460.125;  -11.678;32797.996
726.172;30879.018;   -9.618;33187.434
726.745;28155.332;   -8.258;35136.613
727.318;27740.811;  -12.978;35751.730
727.891;27134.172;  -12.148;35890.430
728.463;26206.717;   -8.968;34822.090
729.036;26111.391;  -10.188;32895.086
729.609;26073.703;  -11.788;31823.225
730.182;24190.180;  -11.788;31445.283
730.754;22853.203;  -10.268;32373.223
731.327;22912.623;   -9.998;33676.820
731.900;24187.293;  -12.228;33417.000
732.472;24154.180;  -13.848;31978.498
733.045;23332.719;   -8.698;30368.777
733.617;22837.783;  -10.607;30574.215
734.190;24690.211;  -11.507;31280.975
734.762;25595.654;  -13.647;31674.412
735.334;26955.188;   -9.767;31247.291
735.907;27486.850;   -9.897;29876.211
736.479;27221.885;  -11.637;29808.488
737.051;28198.385;   -9.567;30233.547
737.623;27559.998;   -8.187;31469.086
738.195;26247.777;  -11.187;31784.225
738.768;25066.998;  -12.337;32120.523
739.340;23421.145;  -12.227;32094.342
739.912;22609.969;  -11.057;31312.680
740.484;22616.791;  -10.207;31946.238
741.056;22315.281;  -10.047;32984.059
741.628;23309.754;  -13.627;33897.715
742.199;24222.787;   -7.177;33213.016
742.771;26461.521;  -10.797;31369.113
743.343;27246.316;  -11.997;31865.473
743.915;27003.734;  -12.867;32388.631
744.487;24466.250;   -7.617;31079.568
745.058;21516.328;   -9.557;30570.107
745.630;22593.262;   -9.877;29970.127
746.201;24332.646;  -14.177;29186.766
746.773;24934.262;   -9.237;28805.723
747.344;23023.967;   -9.847;29591.223
747.916;21215.824;  -11.657;31412.201
748.487;22222.617;  -10.587;32194.898
749.059;23999.229;   -8.707;32533.719
749.630;24297.137;  -10.537;32158.518
750.201;23689.305;  -11.687;30855.395
750.773;22416.908;  -11.647;28622.555
751.344;22203.684;   -7.147;28405.732
751.915;24303.598;   -9.757;28461.551
752.486;25387.727;  -12.427;27842.850
753.057;24273.207;  -12.227;27845.008
753.628;24341.898;  -10.417;27728.107
754.199;23925.566;  -11.767;27381.086
754.770;23462.377;  -11.187;25882.203
755.341;22351.625;  -10.507;25886.184
755.912;20727.025;   -9.387;26050.861
756.483;19234.121;  -10.647;26798.779
757.054;19728.586;  -11.837;27048.238
757.625;19793.770;  -12.716;26294.838
758.195;19601.080;   -9.666;26142.076
758.766;19894.697;   -8.656;26392.234
759.337;19376.963;  -12.856;26334.594
759.907;19124.342;  -13.366;27579.652
760.478;18834.824;   -8.576;28352.770
761.048;19771.244;  -10.526;27325.088
761.619;19834.615;  -11.116;26460.428
762.189;18479.686;  -12.136;26029.826
762.760;18157.584;   -9.456;26430.145
763.330;18616.611;   -7.136;26670.902
763.900;18792.230;  -11.786;26603.021
764.471;18301.893;  -11.546;25542.740
765.041;17393.557;   -8.096;24358.459
765.611;16704.555;   -8.876;23991.297
766.181;16749.861;  -12.196;24470.236
766.751;16562.381;  -11.636;24845.975
767.321;17545.998;  -10.156;24533.633
767.891;16950.889;  -11.766;24916.492
768.461;17153.744;  -14.936;24776.771
769.031;18178.178;  -12.356;24757.988
769.601;18798.063;   -7.526;24181.088
770.171;18590.164;  -10.766;23670.387
770.741;17799.730;  -13.176;22960.045
771.311;17360.666;  -10.616;22917.523
771.880;17653.893;   -9.576;23562.941
772.450;17294.553;  -10.336;24216.500
773.020;16868.150;  -13.516;24140.398
773.589;17495.686;  -13.466;24414.857
774.159;17375.000;   -8.686;23858.717
774.729;16036.140;   -9.476;22942.135
775.298;14257.505;  -13.666;22324.033
775.867;13949.688;  -11.716;21140.313
776.437;14088.765;   -9.906;20838.092
777.006;13360.715;  -12.166;20599.510
777.576;12844.162;  -12.356;20508.809
778.145;12753.274;  -11.646;20732.947
778.714;13196.064;   -8.226;21062.465
779.283;14214.111;   -9.556;20949.664
779.853;14864.761;  -14.116;20508.623
780.422;14297.040;  -11.506;20649.082
780.991;13834.211;   -9.556;21527.520
781.560;13554.765;   -9.095;22632.658
782.129;13418.571;  -12.135;23048.277
782.698;13310.007;  -10.865;23438.555
783.267;12948.200;   -9.335;23267.734
783.836;13009.996;  -11.045;22415.133
784.404;13711.701;  -13.865;20443.152
784.973;13005.516;  -13.095;19699.150
785.542;11671.415;  -11.575;19763.828
786.111;11046.102;   -9.705;20341.408
786.679;11724.549;  -12.105;20207.967
787.248;11989.827;  -12.455;19516.465
787.817;11686.280;  -11.535;18900.363
788.385;11819.004;   -9.765;17879.121
788.954;11811.521;  -14.005;17658.301
789.522;11236.658;  -11.955;17788.879
790.090;11483.690;  -10.135;18118.277
790.659;12450.058;  -10.975;18338.736
791.227;12370.411;  -13.375;18508.615
791.795;11751.530;  -12.375;17898.254
792.364;11207.655;  -10.725;17295.133
792.932;11384.770;   -9.715;16822.051
793.500;11500.601;  -12.675;17040.148
794.068;11222.612;  -13.495;17179.787
794.636;10075.629;  -10.885;16664.246
795.204; 9076.413;  -11.045;16524.545
795.772; 9776.352;  -13.175;17274.564
796.340;10940.407;  -12.445;17891.002
796.908;10754.894;   -9.735;17648.561
797.476;11140.440;   -9.815;17064.080
798.044;11940.091;  -13.985;16672.777
798.612;11738.586;  -13.115;17023.996
799.180;10464.956;  -10.185;16561.615
799.747; 9452.426;   -9.055;15962.773
800.315; 8804.018;  -12.385;15296.992
800.883; 9058.198;  -15.035;14801.771
801.450; 9359.864;  -10.365;14534.430
802.018; 9485.579;   -9.855;14173.248
802.585; 9647.024;  -11.905;14029.547
803.153; 9172.236;  -11.585;13836.846
803.720; 8498.015;   -9.095;13567.324
804.287; 8549.485;   -9.135;13360.622
804.855; 8843.778;  -11.604;13681.981
805.422; 8933.847;  -11.794;13536.560
805.989; 8815.705;  -10.734;13355.958
806.556; 8406.005;  -10.444;13747.896
807.124; 8296.789;  -12.764;13987.376
807.691; 8925.518;  -12.964;14038.674
808.258; 9390.463;  -11.134;14120.152
808.825; 9584.607;   -9.854;13860.111
809.392; 9248.245;  -10.504;13268.790
809.959; 8771.147;  -13.054;12680.389
810.526; 8595.390;   -8.294;12427.308
811.093; 8273.792;   -8.394;12030.105
811.659; 7524.275;  -12.304;11653.664
812.226; 7307.773;  -13.944;11637.183
812.793; 7806.998;  -10.484;11611.521
813.360; 7940.860;  -10.144;11885.181
813.926; 7241.030;  -11.684;12770.539
814.493; 6633.871;  -13.644;12677.638
815.060; 6484.989;   -9.724;11974.336
815.626; 6786.644;   -9.854;11594.715
816.193; 6815.222;  -13.254;11579.474
816.759; 6806.194;  -13.204;11666.972
817.325; 6585.558;   -9.434;11325.530
817.892; 6284.605;  -10.134;11105.369
818.458; 6219.858;  -13.474;10843.928
819.024; 6220.763;  -11.854;10714.406
819.591; 6500.773;  -10.244;10469.165
820.157; 6598.930;  -10.704;10235.523
820.723; 6875.728;  -12.324;10847.563
821.289; 7296.056;   -9.444;11040.980
821.855; 7357.800;   -8.374;10357.100
822.421; 6962.608;  -10.234; 9978.918
822.987; 6698.938;  -13.294; 9754.177
823.553; 6550.620;  -10.884;10065.755
824.119; 6119.058;   -8.884;10036.294
824.685; 5942.634;   -6.784;10029.192
825.251; 5895.055;  -12.004;10199.230
825.816; 5999.757;  -11.474; 9820.189
826.382; 5764.980;   -9.174; 9297.248
826.948; 5473.192;   -9.214; 9381.347
827.513; 5233.171;  -10.774; 9450.726
828.079; 5189.321;  -11.924; 9472.444
828.645; 5294.904;  -10.543; 9292.643
829.210; 5513.827;  -10.533; 9065.341
829.776; 5528.542;  -10.753; 9132.620
830.341; 5414.992;  -10.173; 9092.878
830.906; 5502.582;  -10.743; 9078.557
831.472; 5380.063;  -11.113; 8534.535
832.037; 4885.187;  -10.603; 8677.874
832.602; 4799.735;  -13.323; 8628.692
833.167; 5173.966;  -10.823; 8879.031
833.733; 5152.330;  -10.113; 9189.790
834.298; 4890.876;  -13.583; 9052.608
834.863; 4751.644;  -12.703; 8895.087
835.428; 4615.952;  -10.523; 8824.266
835.993; 4557.686;   -6.963; 8845.385
836.558; 4659.213;  -10.763; 8888.563
837.123; 4779.026;   -9.903; 8966.582
837.688; 4618.027;   -9.913; 8617.860
838.253; 4478.389;  -10.283; 8590.699
838.817; 4636.041;  -12.963; 8443.797
839.382; 4801.007;  -14.243; 8799.356
839.947; 4667.572;  -10.733; 8810.595
840.511; 4745.662;   -9.383; 8796.394
841.076; 4786.946;  -12.563; 8347.231
841.641; 4592.986;  -12.953; 8224.330
842.205; 4304.655;   -7.043; 8223.349
842.770; 4252.369;   -8.163; 8622.107
843.334; 4303.025;  -12.503; 8410.386
843.898; 4278.270;  -11.693; 8337.465
844.463; 4164.744;  -10.203; 8506.283
845.027; 4065.533;   -9.533; 8280.962
845.591; 4109.547;  -13.443; 8231.141
846.156; 4026.347;  -13.143; 7969.179
846.720; 3826.533;   -9.433; 7768.278
847.284; 3528.128;  -11.033; 7630.957
847.848; 3364.411;  -10.403; 7472.395
848.412; 3387.678;  -11.553; 7437.394
848.976; 3587.627;   -8.393; 7674.592
849.540; 3643.230;   -8.713; 7836.011
850.104; 3624.027;  -12.463; 7913.669
850.668; 3765.320;  -12.973; 7694.508
851.232; 3799.070;  -10.793; 7756.887
851.796; 3707.402;  -10.662; 7926.545
852.359; 3736.342;  -13.082; 7827.844
852.923; 3477.704;  -12.192; 7641.163
853.487; 3372.229;  -11.912; 7342.501
854.050; 3517.675;  -10.892; 7042.820
854.614; 3489.350;  -13.992; 7151.338
855.177; 3368.462;  -11.732; 7105.077
855.741; 3307.670;   -8.962; 6989.675
856.304; 3215.636;   -9.442; 6596.634
856.868; 2971.359;  -14.192; 6356.272
857.431; 2754.011;  -12.702; 6468.571
857.995; 2794.220;   -9.942; 6373.210
858.558; 2831.264;   -9.112; 6324.448
859.121; 2646.505;  -12.932; 6408.327
859.684; 2586.334;  -13.442; 6347.886
860.247; 3015.011;  -10.632; 6321.264
860.810; 3353.354;  -11.272; 6301.903
861.374; 3366.084;   -9.832; 6607.881
861.937; 3339.254;  -11.762; 6408.200
862.500; 3196.177;   -9.722; 6572.639
863.062; 2880.386;  -10.512; 6387.297
863.625; 2762.065;  -11.232; 6190.836
864.188; 2754.841;  -14.112; 5807.254
864.751; 2752.409;  -11.302; 5682.413
865.314; 2873.218;  -10.112; 5547.492
865.876; 2910.417;  -12.182; 5500.150
866.439; 2827.942;  -10.722; 5415.909
867.002; 2670.332;   -9.252; 5501.567
867.564; 2562.153;   -9.572; 5413.946
868.127; 2430.218;  -13.142; 5160.325
868.689; 2143.546;  -12.902; 5133.183
869.252; 2007.723;   -9.732; 5252.382
869.814; 2021.638;   -9.432; 5297.141
870.377; 2124.394;  -11.552; 5390.919
870.939; 2110.027;   -9.052; 5599.898
871.501; 2037.619;  -10.982; 5248.336
872.063; 2064.142;  -12.292; 4854.235
872.626; 2060.907;  -14.912; 4817.074
873.188; 2058.104;  -13.112; 4987.732
873.750; 2008.250;  -13.442; 4868.651
874.312; 2068.973;   -9.402; 4779.330
874.874; 2206.731;  -11.062; 4866.348
875.436; 2086.386;  -13.931; 4718.887
875.998; 1794.455;   -9.561; 4660.005
876.560; 1638.233;  -11.321; 4462.964
877.122; 1633.720;  -12.221; 4145.042
877.683; 1611.295;  -12.191; 4056.481
878.245; 1699.447;  -12.101; 3950.740
878.807; 1854.312;   -8.971; 4058.958
879.369; 1896.906;  -12.071; 3954.677
879.930; 1826.243;  -14.621; 3941.495
880.492; 1650.055;  -10.311; 4067.014
881.053; 1487.304;  -10.901; 3859.633
881.615; 1470.239;  -14.411; 3776.071
882.176; 1501.281;  -13.761; 3734.750
882.738; 1523.440;   -9.181; 3678.489
883.299; 1482.841;  -11.791; 3405.407
883.860; 1399.894;  -13.121; 3351.106
884.422; 1290.894;  -11.211; 3394.044
884.983; 1211.043;  -10.091; 3166.443
885.544; 1184.218;   -8.461; 3189.802
886.105; 1126.016;  -12.361; 3160.360
886.666; 1051.323;  -14.141; 3093.059
887.227; 1021.652;  -11.361; 2941.957
887.788; 1037.860;  -11.401; 2974.836
888.349;  992.131;  -13.791; 2721.214
888.910;  894.969;  -13.191; 2696.493
889.471;  789.585;   -9.881; 2560.172
890.032;  714.454;   -9.881; 2558.190
890.593;  715.199;  -10.371; 2567.669
891.153;  717.478;  -13.301; 2460.307
891.714;  653.241;  -11.431; 2372.046
892.275;  601.175;  -11.291; 2309.505
892.835;  587.075;  -11.471; 2382.543
893.396;  574.784;  -11.541; 2295.502
893.956;  568.029;  -11.181; 2162.420
894.517;  552.760;  -11.741; 2125.439
895.077;  506.362;  -11.671; 2086.978
895.638;  455.447;  -11.311; 2126.316
896.198;  434.299;   -9.831; 1838.275
896.758;  435.428;   -8.421; 1892.813
897.319;  428.773;  -12.351; 1792.232
897.879;  409.158;  -13.511; 1762.751
898.439;  383.654;  -12.001; 1661.149
898.999;  363.795;  -10.180; 1781.468
899.559;  349.228;  -12.030; 1703.347
900.119;  340.258;  -15.710; 1537.525
900.679;  320.155;   -8.900; 1638.384
901.239;  290.659;   -8.340; 1527.902
901.799;  277.015;  -13.910; 1456.441
902.359;  267.587;  -13.460; 1357.140
902.919;  262.180;  -11.490; 1331.118
903.479;  259.045;  -12.110; 1317.257
904.038;  251.780;  -11.720; 1262.595
904.598;  236.023;  -13.610; 1152.034
905.158;  223.875;  -11.040; 1240.893
905.717;  216.914;  -10.900; 1233.691
906.277;  213.041;  -15.080; 1217.330
906.836;  210.107;  -13.380; 1222.408
907.396;  207.071;  -10.780; 1193.047
907.955;  200.349;   -8.500; 1182.526
908.515;  192.157;  -12.760; 1099.364
909.074;  189.379;  -11.900; 1092.863
909.633;  186.449;   -8.950; 1069.121
910.192;  182.319;   -8.770; 1196.460
910.752;  177.888;  -12.390; 1029.960
911.311;  174.842;  -13.680; 1009.780
911.870;  169.580;  -12.370;  971.460
912.429;  165.732;  -10.900; 1094.080
912.988;  164.026;  -11.690; 1081.060
913.547;  159.869;  -13.240;  940.380
914.106;  159.563;  -11.990;  999.420
914.665;  159.016;   -9.990;  984.020
915.224;  157.269;  -12.880; 1035.760
915.782;  156.860;  -12.350;  922.560
916.341;  157.201;   -9.110; 1049.840
916.900;  154.242;   -9.270;  925.260
917.458;  151.794;  -13.240;  884.220
918.017;  149.230;  -13.550;  942.600
918.576;  150.368;  -12.320;  904.440
919.134;  148.866;  -11.490;  837.980
919.693;  148.009;  -13.670;  893.060
920.251;  146.222;  -15.470;  876.500
920.809;  144.886;  -11.290;  839.580
921.368;  144.820;  -10.210;  885.360
921.926;  144.748;  -12.140;  842.940
922.484;  144.030;  -13.080;  903.360
923.042;  143.064;  -11.720;  880.340
923.601;  144.316;   -7.480;  998.680
924.159;  143.377;  -11.570;  935.560
924.717;  142.180;  -13.840;  841.080
925.275;  144.200;  -10.640;  903.240
925.833;  142.589;  -11.540;  779.320
926.391;  142.751;  -12.960;  938.380
926.949;  143.632;  -14.130;  857.680
927.506;  144.742;  -11.750;  903.500
928.064;  141.807;  -10.250;  877.580
928.622;  140.627;  -13.030;  880.100
929.180;  142.871;  -13.400;  814.180
929.737;  145.030;  -10.700;  808.540
930.295;  145.991;  -10.070;  928.480
930.853;  146.584;  -11.960;  849.100
931.410;  145.316;  -13.120;  821.120
931.968;  146.353;  -10.770;  940.660
932.525;  147.794;  -10.680;  909.380
933.082;  150.418;  -13.130;  811.440
933.640;  156.293;  -13.210;  925.900
934.197;  157.262;  -11.060;  886.360
934.754;  156.666;   -9.580;  897.780
935.312;  158.402;  -14.000;  863.340
935.869;  161.848;  -10.710; 1012.980
936.426;  160.205;   -9.860;  872.800
936.983;  157.734;   -9.710;  889.020
937.540;  156.852;  -13.990;  838.280
938.097;  156.762;  -14.040;  940.120
938.654;  159.687;  -10.310;  898.860
939.211;  159.892;  -10.560;  952.480
939.768;  158.745;  -13.900;  915.420
940.324;  159.958;  -14.760;  904.200
940.881;  164.697;  -10.370;  878.500
941.438;  171.163;   -8.260; 1021.200
941.995;  172.447;  -12.540;  992.560
942.551;  170.484;  -14.670;  875.620
943.108;  171.185;  -10.450;  937.920
943.664;  172.088;  -10.750;  869.340
944.221;  178.068;  -11.550; 1088.140
944.777;  179.864;  -14.770;  869.680
945.334;  179.244;  -12.820;  884.840
945.890;  177.844;  -10.130;  946.480
946.446;  174.648;  -13.470;  947.020
947.003;  175.618;  -12.120;  964.940
947.559;  175.829;   -9.980; 1063.040
948.115;  172.234;   -9.080; 1026.540
948.671;  168.317;  -10.830;  967.300
949.227;  166.934;  -12.440;  859.560
949.783;  166.378;  -12.910;  858.900
950.339;  169.543;  -10.270;  991.000
950.895;  169.531;  -13.630; 1023.840
951.451;  169.322;  -15.100;  925.280
952.007;  169.511;  -11.330;  998.540
952.563;  166.959;  -10.580;  937.780
953.118;  162.487;  -13.440;  904.940
953.674;  159.820;  -12.710;  935.780
954.230;  161.751;  -10.350;  949.640
954.785;  165.971;   -9.190;  936.640
955.341;  167.138;  -11.200;  998.160
955.897;  164.275;  -16.560;  834.660
956.452;  161.766;  -12.570;  953.840
957.008;  159.617;   -7.970; 1083.640
957.563;  159.800;  -11.940; 1009.540
958.118;  157.488;  -13.450;  877.700
958.674;  157.452;  -12.030;  946.780
959.229;  157.264;   -9.410; 1013.980
959.784;  157.019;  -12.000;  832.400
960.339;  156.662;  -14.780; 1001.280
960.894;  152.853;   -9.860;  963.760
961.449;  146.965;   -9.970;  859.960
962.004;  143.204;  -10.900; 1212.840
962.559;  135.112;  -13.150;  860.140
963.114;  126.625;  -13.740;  742.480
963.669;  120.814;   -9.820;  915.500
964.224;  112.986;  -13.890;  874.340
964.779;  105.862;  -12.600;  828.420
965.334;  101.037;  -10.950; 1017.860
965.888;   97.611;  -11.170;  875.360
966.443;  100.028;  -12.540;  972.380
966.998;  102.316;  -15.780;  819.460
967.552;  106.700;   -9.760;  908.380
968.107;  105.982;   -9.060;  868.300
968.661;  106.889;  -11.950;  922.440
969.216;  107.379;  -12.800;  856.280
969.770;  108.425;  -11.210;  917.200
970.324;  106.806;  -11.610;  923.140
970.879;  106.033;  -11.370;  947.180
971.433;  105.552;  -12.540;  952.720
971.987;  104.581;  -11.320;  895.340
972.541;  103.890;  -10.720;  917.100
973.095;  105.583;   -9.680; 1009.460
973.649;  104.758;  -11.440;  809.480
974.203;  105.010;  -11.210;  829.040
974.757;  105.463;  -10.240;  855.220
975.311;  105.420;  -13.720;  872.600
975.865;  106.246;  -13.770;  881.820
976.419;  106.166;  -11.690;  857.400
976.973;  105.171;   -9.510;  849.620
977.526;  105.931;  -12.620;  949.920
978.080;  102.805;  -12.010;  796.780
978.634;  101.904;  -10.170;  921.320
979.187;   98.725;   -9.020;  905.400
979.741;   97.241;   -9.820; 1018.380
980.294;   94.368;  -14.870;  789.160
980.848;   90.869;  -12.380;  717.220
981.401;   89.663;  -10.350;  816.540
981.955;   89.517;  -13.720;  844.300
982.508;   86.669;  -11.490;  746.340
983.061;   86.902;  -10.000;  915.260
983.615;   86.221;  -11.480;  798.800
984.168;   85.749;  -13.220;  770.080
984.721;   86.319;  -13.960;  880.760
985.274;   83.671;  -10.870;  867.500
985.827;   81.993;   -9.790;  834.220
986.380;   80.348;  -13.120;  721.340
986.933;   81.684;  -12.450;  864.800
987.486;   81.998;  -10.210;  861.920
988.039;   80.868;   -8.430;  863.100
988.591;   77.261;  -10.520;  893.260
989.144;   74.775;  -14.860;  737.260
989.697;   73.069;  -13.080;  758.740
990.250;   70.287;  -10.150;  858.100
990.802;   69.245;  -13.430;  755.860
991.355;   69.700;  -12.750;  974.880
991.907;   66.732;  -12.040;  864.320
992.460;   63.764;  -11.330;  753.760
993.012;   63.402;  -13.610;  749.540
993.565;   62.384;  -13.460;  711.360
994.117;   63.449;   -9.360;  950.780
994.669;   60.296;  -11.300;  701.320
995.221;   60.507;  -13.540;  791.920
995.774;   59.582;  -13.430;  787.580
996.326;   59.220;  -12.520;  740.220
996.878;   59.549;  -10.950;  838.420
997.430;   56.740;  -14.300;  699.860
997.982;   55.924;  -13.760;  750.140
998.534;   55.813;  -11.530;  739.060
999.086;   53.721;  -10.310;  738.220
999.638;   52.683;  -12.530;  661.380
1000.190;   52.462;  -11.840;  699.320
1000.741;   51.489;  -10.260;  742.700
1001.293;   50.945;   -8.860;  686.020
1001.845;   50.269;  -13.700;  676.640
1002.396;   50.746;  -12.100;  743.400
1002.948;   50.078;  -12.760;  737.400
1003.500;   48.351;  -10.380;  723.780
1004.051;   49.059;  -11.900;  907.580
1004.603;   48.019;  -12.250;  791.820
1005.154;   44.786;  -13.210;  608.980
1005.705;   44.032;  -10.950;  723.960
1006.257;   43.299;  -13.880;  707.220
1006.808;   42.752;  -12.840;  685.460
1007.359;   42.123;  -10.570;  763.240
1007.910;   40.913;   -9.620;  646.640
1008.461;   40.342;  -13.630;  732.940
1009.013;   38.840;  -17.200;  588.340
1009.564;   39.992;  -10.200;  793.520
1010.115;   38.682;  -12.570;  597.040
1010.665;   38.098;  -15.150;  602.160
1011.216;   38.033;  -14.480;  667.920
1011.767;   37.593;  -11.340;  697.920
1012.318;   38.037;   -9.780;  736.980
1012.869;   36.418;  -12.380;  679.000
1013.419;   36.860;  -15.560;  603.120
1013.970;   36.291;  -11.010;  666.640
1014.521;   35.389;  -11.610;  620.620
1015.071;   36.331;  -13.450;  670.380
1015.622;   35.860;  -13.870;  635.460
1016.172;   34.979;  -11.610;  596.820
1016.723;   34.277;  -12.120;  614.380
1017.273;   34.547;  -13.620;  604.160
1017.823;   34.369;  -14.140;  650.340
1018.374;   34.170;  -12.800;  611.760
1018.924;   33.470;  -12.340;  716.880
1019.474;   34.543;  -11.410;  718.880
1020.024;   32.112;  -14.770;  657.580
1020.574;   33.672;   -9.780;  726.160
1021.124;   33.233;   -8.560;  673.580
1021.674;   31.853;  -15.190;  559.120
1022.224;   33.578;  -13.530;  708.940
1022.774;   33.286;  -13.280;  668.820
1023.324;   33.299;  -10.690;  753.520
1023.874;   34.369;  -10.240;  875.760
1024.423;   31.231;  -12.540;  613.700
1024.973;   32.003;  -10.010;  610.760
1025.523;   30.177;  -10.550;  620.960
1026.072;   30.028;  -13.560;  606.420
1026.622;   30.839;  -15.120;  675.740
1027.172;   31.773;  -11.260;  715.660
1027.721;   29.375;  -11.410;  601.220
1028.270;   30.222;  -13.530;  663.400
1028.820;   30.222;  -13.680;  638.080
1029.369;   29.849;  -13.520;  612.700
1029.918;   29.206;  -10.980;  649.840
1030.468;   29.627;  -13.530;  564.780
1031.017;   29.497;  -13.170;  634.800
1031.566;   28.598;  -12.200;  608.900
1032.115;   28.816;   -9.960;  694.500
1032.664;   28.340;  -13.210;  596.480
1033.213;   28.554;  -12.500;  735.420
1033.762;   28.197;  -11.910;  635.620
1034.311;   27.370;   -9.640;  677.220
1034.860;   27.969;  -13.310;  691.000
1035.408;   27.800;  -11.830;  722.720
1035.957;   29.375;  -12.000;  719.540
1036.506;   25.591;  -11.690;  530.800
1037.055;   28.900;  -10.990;  844.320
1037.603;   26.966;  -15.120;  664.000
1038.152;   26.565;  -12.450;  534.760
1038.700;   25.364;  -10.560;  585.740
1039.249;   26.214;  -11.080;  681.220
1039.797;   26.463;  -12.540;  633.360
1040.345;   26.413;  -11.920;  705.420
1040.894;   25.687;  -11.410;  625.300
1041.442;   25.078;  -14.320;  632.200
1041.990;   24.940;  -16.240;  559.160
1042.538;   24.217;  -11.680;  536.180
1043.087;   24.158;  -10.760;  570.860
1043.635;   26.424;  -11.850;  670.500
1044.183;   25.075;  -15.480;  586.400
1044.731;   24.219;  -11.770;  576.000
1045.279;   24.266;  -13.090;  674.920
1045.827;   26.533;  -12.440;  892.400
1046.374;   23.104;  -13.840;  515.420
1046.922;   22.599;  -13.220;  590.580
1047.470;   23.889;  -10.230;  691.300
1048.018;   24.387;  -14.590;  647.960
1048.565;   25.150;  -12.050;  708.600
1049.113;   22.438;  -11.650;  557.000
1049.660;   23.283;  -10.510;  629.660
1050.208;   23.106;  -13.310;  675.640
1050.755;   22.888;  -15.900;  606.580
1051.303;   23.554;  -11.430;  686.820
1051.850;   21.798;   -8.480;  635.120
1052.397;   20.783;  -15.010;  473.960
1052.945;   21.021;  -13.960;  617.760
1053.492;   22.903;  -13.150;  741.840
1054.039;   22.883;   -9.630;  720.180
1054.586;   21.244;  -13.680;  557.240
1055.133;   22.900;  -14.570;  693.140
1055.680;   22.790;  -13.820;  646.620
1056.227;   20.778;  -11.730;  542.780
1056.774;   22.981;  -12.480;  794.980
1057.321;   20.720;  -13.930;  523.260
1057.868;   20.768;  -11.690;  651.320
1058.415;   20.275;   -9.520;  651.980
1058.961;   20.665;  -13.160;  678.940
1059.508;   20.496;  -12.920;  643.820
1060.055;   20.187;  -11.920;  581.780
1060.601;   20.643;  -11.500;  624.300
1061.148;   19.849;  -14.330;  616.820
1061.694;   19.786;  -16.870;  592.580
1062.241;   20.628;  -10.330;  596.320
1062.787;   19.944;  -10.620;  663.140
1063.334;   21.431;  -10.110;  808.560
1063.880;   19.972;  -13.400;  668.360
1064.426;   19.973;  -10.680;  706.820
1064.972;   18.487;   -9.920;  601.340
1065.518;   17.619;  -10.980;  566.640
1066.065;   19.498;  -14.890;  624.460
1066.611;   18.127;  -12.870;  598.800
1067.157;   18.361;  -12.950;  641.860
1067.703;   18.005;  -13.540;  668.480
1068.249;   18.066;  -13.540;  605.220
1068.794;   18.611;  -12.600;  626.880
1069.340;   17.518;  -10.620;  578.960
1069.886;   18.164;  -12.830;  590.700
1070.432;   17.306;  -14.870;  541.720
1070.977;   16.329;  -11.980;  601.080
1071.523;   17.036;   -8.200;  573.060
1072.068;   17.288;  -12.330;  582.000
1072.614;   17.084;  -16.370;  527.760
1073.160;   18.103;  -11.100;  687.040
1073.705;   16.189;  -10.480;  572.520
1074.250;   16.577;  -14.520;  559.900
1074.796;   17.803;  -11.460;  655.160
1075.341;   17.893;  -11.950;  664.100
1075.886;   16.882;  -11.460;  594.240
1076.431;   16.013;  -13.770;  649.880
1076.976;   16.250;  -12.680;  639.220
1077.521;   15.525;  -13.170;  583.080
1078.067;   15.333;  -10.860;  579.400
1078.612;   15.130;  -13.920;  661.620
1079.156;   15.728;  -13.880;  601.540
1079.701;   16.105;  -13.120;  693.260
1080.246;   16.407;   -9.940;  696.300
1080.791;   16.050;  -14.740;  625.020
1081.336;   16.253;  -13.750;  659.320
1081.880;   15.708;  -13.400;  649.680
1082.425;   14.289;  -12.220;  573.480
1082.970;   15.815;  -11.610;  717.040
1083.514;   14.640;  -13.580;  597.000
1084.059;   14.698;  -12.810;  586.720
1084.603;   14.111;  -12.320;  565.840
1085.147;   14.607;  -13.190;  645.220
1085.692;   14.871;  -12.480;  716.800
1086.236;   13.553;  -13.020;  503.140
1086.780;   15.074;   -9.190;  751.440
1087.325;   13.710;  -12.480;  654.620
1087.869;   14.779;  -12.450;  610.700
1088.413;   13.990;  -12.240;  705.040
1088.957;   13.287;   -9.020;  543.400
1089.501;   14.331;  -10.320;  766.640
1090.045;   14.468;  -12.720;  726.480
1090.589;   11.342;  -13.690;  569.920
1091.133;   13.557;  -10.020;  673.340
1091.676;   12.570;  -12.330;  591.940
1092.220;   12.785;  -14.970;  600.920
1092.764;   14.444;  -12.430;  706.960
1093.307;   12.578;   -9.800;  673.780
1093.851;   12.435;  -14.970;  556.540
1094.395;   12.565;  -15.310;  683.140
1094.938;   12.292;  -10.370;  632.520
1095.482;   11.778;  -11.050;  559.800
1096.025;   12.659;  -11.840;  710.880
1096.568;   13.102;  -12.840;  779.280
1097.112;   10.245;  -14.700;  508.180
1097.655;   12.299;   -8.720;  603.000
1098.198;   10.152;  -13.610;  600.180
1098.741;   11.181;  -13.350;  612.860
1099.285;   12.329;  -11.230;  657.300
1099.828;    9.836;  -11.840;  439.400
1100.371;   11.260;  -10.840;  608.160
1100.914;   11.293;  -14.190;  682.660
1101.457;   11.728;  -11.240;  679.900
1101.999;   10.298;  -11.270;  584.680
1102.542;   10.949;  -11.480;  641.440
1103.085;   10.018;  -11.750;  658.500
1103.628;   11.162;  -11.400;  762.060
1104.170;    9.767;  -10.490;  588.280
1104.713;   10.253;  -10.600;  646.700
1105.256;    9.952;  -14.360;  557.440
1105.798;   10.004;  -13.210;  499.980
1106.341;   10.555;  -10.270;  728.900
1106.883;    9.450;  -12.200;  521.340
1107.425;   10.609;  -13.110;  668.180
1107.968;    9.564;  -12.840;  612.380
1108.510;    9.738;   -6.480;  684.960
1109.052;    8.107;  -13.940;  612.620
1109.594;    8.914;  -13.690;  554.440
1110.136;    9.934;  -11.880;  643.220
1110.679;    7.486;   -9.500;  633.080
1111.221;    9.098;  -14.160;  604.460
1111.763;    8.288;  -13.980;  559.220
1112.304;    8.717;  -13.880;  547.140
1112.846;    9.262;  -12.210;  666.240
1113.388;   11.026;  -11.390;  942.180
1113.930;    9.292;  -14.540;  694.200
1114.472;    8.396;  -12.640;  606.540
1115.013;    7.210;  -11.620;  551.280
1115.555;    7.066;  -13.640;  587.100
1116.097;    6.262;  -15.380;  579.480
1116.638;    7.795;  -12.640;  684.600
1117.180;    7.496;   -9.850;  667.740
1117.721;    7.033;  -13.690;  568.580
1118.262;    8.690;  -12.680;  677.960
1118.804;    8.330;  -12.530;  637.340
1119.345;    6.865;  -11.690;  578.400
1119.886;    7.961;  -13.380;  704.040
1120.427;    6.832;  -14.070;  589.020
1120.969;    7.070;  -13.500;  597.920
1121.510;    6.106;  -11.480;  563.060
1122.051;    6.720;  -12.830;  723.580
1122.592;    6.199;  -14.290;  655.420
1123.133;    5.910;  -12.400;  547.940
1123.673;    6.956;  -10.130;  706.480
1124.214;    6.667;  -12.930;  612.460
1124.755;    7.224;  -14.380;  639.460
1125.296;    7.756;  -14.000;  627.320
1125.836;    7.479;  -10.070;  691.500
1126.377;    5.146;  -12.640;  599.660
1126.918;    7.356;  -12.960;  614.980
1127.458;    5.506;  -13.350;  622.220
1127.999;    6.484;  -10.750;  656.980
1128.539;    6.029;  -12.350;  694.240
1129.079;    5.652;  -14.860;  632.720
1129.620;    5.125;  -13.840;  558.100
1130.160;    4.429;  -12.330;  539.480
1130.700;    5.786;  -14.530;  640.840
1131.240;    6.742;  -12.530;  643.700
1131.781;    5.235;  -14.450;  619.680
1132.321;    4.736;   -9.790;  599.120
1132.861;    3.843;  -14.860;  564.200
1133.401;    3.991;  -14.290;  593.940
1133.941;    5.188;  -11.750;  626.280
1134.481;    4.565;   -9.920;  597.580
1135.020;    3.962;  -12.290;  609.160
1135.560;    4.770;  -11.650;  674.940
1136.100;    3.456;  -16.270;  501.160
1136.640;    4.076;  -10.890;  510.480
1137.179;    3.972;  -14.180;  537.960
1137.719;    4.082;  -16.250;  605.400
1138.258;    4.946;  -14.230;  587.360
1138.798;    4.796;   -9.090;  663.780
1139.337;    2.891;  -15.130;  482.840
1139.877;    4.204;  -13.680;  642.360
1140.416;    6.173;  -11.320;  878.060
1140.955;    2.638;  -10.860;  535.380
1141.494;    3.425;  -12.920;  669.280
1142.034;    3.248;  -13.930;  583.520
1142.573;    4.418;  -11.440;  646.280
1143.112;    2.827;  -12.000;  553.480
1143.651;    2.880;  -13.670;  536.480
1144.190;    4.212;  -12.730;  691.640
1144.729;    3.823;  -14.560;  607.420
1145.267;    3.234;  -11.830;  584.900
1145.806;    3.600;  -12.230;  637.040
1146.345;    2.400;  -14.130;  635.020
1146.884;    3.395;  -11.590;  622.500
1147.422;    1.338;  -12.550;  533.060
1147.961;    3.509;  -11.180;  708.460
1148.500;    3.420;  -11.510;  669.720
1149.038;    4.024;  -11.640;  632.500
1149.577;    2.392;  -10.130;  698.640
1150.115;    0.522;  -13.970;  452.280
1150.653;    2.538;  -14.520;  607.340
1151.192;    2.575;  -12.810;  552.920
1151.730;    2.334;   -9.100;  652.560
1152.268;    1.919;  -12.220;  589.520
1152.806;    1.663;  -14.140;  571.180
1153.344;    1.039;  -12.350;  577.640
1153.882;    1.129;   -8.980;  600.060
1154.421;   -0.068;  -15.190;  470.620
1154.958;    1.146;  -15.210;  595.240
1155.496;    2.374;  -12.850;  645.280
1156.034;    2.008;   -9.940;  721.880
1156.572;    1.922;  -13.570;  667.060
1157.110;    0.908;  -14.590;  473.940
1157.647;    2.278;  -13.030;  676.960
1158.185;    0.231;  -12.140;  564.320
1158.723;   -0.055;  -14.390;  509.200
1159.260;    1.072;  -14.090;  701.700
1159.798;    2.327;  -11.920;  658.160
1160.335;    0.167;  -11.110;  631.820

