
Integration time [ms]:   3.276
Averaging Nr. [scans]: 1000
Smoothing Nr. [pixels]: 0
Data measured with spectrometer [name]: 7414430SP
Wave   ;Sample   ;Dark     ;Reference
[nm]   ;[counts] ;[counts] ;[counts] 

288.544;  150.732;    7.793;  793.890
289.143;  154.943;    7.462;  681.602
289.742;  154.371;    8.602;  828.814
290.341;  139.852;    1.321;  789.841
290.940;  129.462;   -0.709;  730.702
291.538;  129.928;    0.881;  881.108
292.137;  130.331;    0.122;  792.581
292.736;  135.178;   -1.929;  975.101
293.335;  131.557;   -8.229;  735.086
293.934;  131.426;   -5.279;  781.677
294.532;  130.510;   -1.369; 1031.958
295.131;  115.240;   -7.641;  834.394
295.730;  116.713;   -8.420;  809.588
296.328;  115.456;   -5.611;  783.442
296.927;  116.665;   -5.781;  779.652
297.525;  116.728;   -6.361;  781.236
298.124;  107.314;  -11.382;  654.009
298.722;  110.329;   -7.641;  761.933
299.321;  108.911;   -6.811;  708.597
299.919;  106.223;   -6.991;  751.918
300.518;  104.203;  -10.362;  689.338
301.116;  104.843;   -9.581;  691.381
301.715;  105.121;   -4.891;  730.222
302.313;  104.236;   -8.801;  704.943
302.911;   99.632;   -8.522;  733.830
303.509;  105.385;   -6.171;  925.627
304.108;  102.530;   -7.311;  760.383
304.706;  101.838;   -8.321;  801.664
305.304;   95.803;  -10.222;  796.707
305.902;  101.992;   -6.021;  784.484
306.500;   96.632;   -4.971;  728.200
307.098;   96.360;   -7.061;  746.560
307.696;   93.786;   -8.801;  780.432
308.294;   93.949;   -6.411;  731.359
308.892;   96.583;   -2.901;  759.769
309.490;   93.073;   -5.041;  712.161
310.088;   90.877;   -5.002;  788.444
310.686;   94.981;   -2.041;  821.749
311.284;   90.703;   -2.351;  766.040
311.882;   88.882;   -4.422;  731.225
312.480;   85.352;   -4.192;  697.167
313.078;   87.027;   -1.172;  808.331
313.675;   87.531;   -2.601;  691.600
314.273;   82.450;   -1.312;  797.837
314.871;   82.064;   -3.942;  589.829
315.468;   79.758;   -2.802;  652.090
316.066;   82.927;   -0.701;  694.427
316.664;   75.187;   -4.362;  656.351
317.261;   79.378;   -2.872;  910.128
317.859;   74.214;   -2.022;  768.735
318.456;   75.511;   -0.531;  830.096
319.054;   71.368;   -3.912;  787.828
319.651;   70.809;   -4.752;  759.928
320.249;   69.538;   -2.602;  810.188
320.846;   67.052;   -0.821;  714.286
321.443;   64.820;   -4.642;  832.135
322.041;   62.706;   -5.002;  812.315
322.638;   59.977;   -3.982;  701.456
323.235;   60.307;   -3.411;  665.683
323.833;   57.749;   -7.361;  740.354
324.430;   53.682;   -8.611;  615.900
325.027;   54.211;   -4.061;  876.855
325.624;   53.848;   -4.031;  644.532
326.221;   51.547;   -7.481;  689.717
326.818;   50.692;   -5.281;  818.332
327.415;   53.119;   -7.460;  748.828
328.012;   53.175;   -5.510;  690.585
328.609;   52.216;   -7.880;  731.389
329.206;   50.249;   -8.331;  778.621
329.803;   50.231;   -5.121;  737.841
330.400;   52.304;   -4.510;  704.260
330.997;   54.528;   -6.441;  817.147
331.594;   53.127;   -8.831;  788.185
332.191;   58.638;   -7.621;  728.722
332.787;   60.424;   -4.591;  844.463
333.384;   58.770;   -7.412;  763.093
333.981;   57.283;   -8.293;  815.687
334.578;   61.040;   -7.052;  708.378
335.174;   63.916;   -3.102;  731.469
335.771;   63.064;   -5.943;  836.456
336.367;   60.521;   -7.393;  710.631
336.964;   64.107;   -4.063;  793.266
337.561;   61.230;   -3.813;  731.112
338.157;   57.405;   -4.654;  911.916
338.754;   55.638;   -7.934;  796.589
339.350;   52.647;   -4.414;  722.493
339.946;   54.877;   -4.664;  773.135
340.543;   46.432;   -6.375;  846.136
341.139;   41.999;   -9.815;  720.836
341.735;   39.215;   -4.526;  772.593
342.332;   38.441;   -4.895;  691.472
342.928;   37.901;   -4.295;  795.394
343.524;   32.901;   -5.476;  761.684
344.120;   28.529;   -5.856;  738.562
344.716;   32.458;   -2.155;  723.717
345.313;   29.629;   -6.275;  795.342
345.909;   24.618;   -8.815;  627.336
346.505;   26.121;   -5.305;  740.247
347.101;   26.880;   -2.674;  827.864
347.697;   26.883;   -4.344;  785.398
348.293;   21.535;   -9.975;  627.244
348.889;   22.421;   -5.774;  745.914
349.485;   22.362;   -5.004;  688.205
350.081;   22.490;   -4.704;  772.592
350.676;   17.911;   -6.635;  691.606
351.272;   21.641;   -4.504;  809.530
351.868;   21.421;   -3.914;  780.497
352.464;   18.737;   -9.044;  723.932
353.059;   15.829;   -8.314;  646.017
353.655;   18.938;   -7.024;  777.063
354.251;   19.639;   -5.343;  759.845
354.846;   14.580;   -8.604;  740.646
355.442;   12.447;   -6.945;  753.071
356.038;   13.780;   -7.564;  751.708
356.633;   14.373;   -5.814;  728.594
357.229;   12.150;   -7.364;  724.757
357.824;   10.722;   -8.024;  703.600
358.420;    9.016;   -9.384;  679.726
359.015;   10.081;   -5.104;  695.357
359.610;   11.117;   -6.854;  763.920
360.206;    4.846;  -10.185;  603.240
360.801;    8.171;   -7.054;  646.503
361.396;    9.966;   -5.034;  725.975
361.992;    5.684;   -8.284;  668.220
362.587;    2.437;   -8.625;  670.160
363.182;    4.645;   -7.674;  689.631
363.777;    5.296;   -5.164;  738.242
364.372;    5.315;   -8.604;  737.314
364.967;    1.165;   -9.055;  680.744
365.563;    5.823;   -6.114;  815.567
366.158;    2.971;   -5.814;  685.161
366.753;    2.624;   -7.854;  649.263
367.348;    2.162;   -7.804;  746.056
367.942;    1.736;   -7.954;  697.298
368.537;    0.709;   -4.984;  754.245
369.132;    0.533;   -8.564;  703.428
369.727;   -2.929;   -8.855;  638.079
370.322;   -2.338;   -6.245;  580.186
370.917;   -1.957;   -6.425;  710.646
371.511;    0.800;   -6.294;  861.834
372.106;   -3.113;   -7.685;  776.964
372.701;   -6.641;   -7.335;  585.988
373.296;   -0.247;   -4.564;  863.135
373.890;   -5.460;  -10.235;  647.840
374.485;   -7.397;   -7.885;  691.199
375.079;   -3.530;   -7.324;  738.685
375.674;   -1.800;   -3.494;  812.970
376.268;   -6.659;   -8.525;  691.759
376.863;  -11.758;  -10.086;  580.327
377.457;   -6.575;   -7.025;  662.490
378.052;   -8.095;   -3.585;  764.884
378.646;   -8.999;   -7.595;  741.167
379.240;   -8.846;   -8.335;  721.176
379.835;   -8.996;   -5.785;  636.978
380.429;   -9.890;   -4.335;  562.557
381.023;  -10.155;   -6.805;  779.205
381.617;  -12.464;   -9.195;  680.106
382.212;   -8.856;   -6.905;  685.303
382.806;   -8.108;   -3.745;  760.690
383.400;  -12.152;   -7.745;  672.281
383.994;  -13.274;   -9.765;  664.870
384.588;   -9.349;   -6.564;  697.701
385.182;   -8.668;   -5.344;  726.624
385.776;   -9.795;   -8.514;  706.875
386.370;  -12.861;   -9.555;  681.968
386.964;  -12.313;   -8.715;  684.155
387.558;   -9.775;   -6.174;  598.360
388.152;  -13.354;   -8.725;  681.959
388.745;  -11.040;   -7.965;  814.707
389.339;  -10.241;   -5.924;  747.642
389.933;   -8.810;   -5.524;  695.370
390.527;  -10.775;   -7.114;  859.029
391.120;  -16.366;  -10.725;  595.318
391.714;  -13.777;   -8.035;  711.633
392.308;  -10.462;   -3.574;  780.253
392.901;  -14.824;   -7.245;  642.460
393.495;  -16.009;   -9.285;  595.414
394.089;  -14.029;   -5.895;  760.452
394.682;  -14.707;   -4.295;  697.188
395.275;  -14.948;   -9.875;  719.927
395.869;  -16.201;   -8.485;  667.314
396.462;  -14.387;   -7.455;  616.609
397.056;  -10.543;   -5.424;  776.621
397.649;  -15.703;   -6.605;  731.575
398.242;  -13.054;   -8.224;  712.645
398.836;  -12.693;   -7.474;  766.408
399.429;  -12.511;   -7.094;  631.041
400.022;  -17.029;   -9.475;  665.902
400.615;  -14.028;   -7.145;  805.609
401.208;  -12.810;   -7.174;  691.451
401.802;  -14.649;   -5.515;  699.329
402.395;  -15.938;   -9.875;  683.502
402.988;  -16.821;   -8.845;  696.627
403.581;  -13.175;   -8.874;  646.878
404.174;  -11.141;   -5.324;  686.568
404.767;  -14.361;   -9.575;  638.583
405.360;  -16.482;  -10.965;  621.445
405.953;  -11.130;   -8.764;  759.034
406.545;  -10.879;   -7.514;  725.342
407.138;  -15.606;  -10.025;  618.350
407.731;  -12.647;  -10.034;  613.303
408.324;  -10.093;   -9.374;  660.554
408.917;  -11.176;   -6.534;  681.864
409.509;  -12.632;   -8.004;  740.396
410.102;  -14.603;   -9.875;  643.948
410.695;   -8.478;   -8.604;  665.758
411.287;   -9.889;   -6.794;  599.821
411.880;  -10.840;   -9.334;  585.421
412.472;  -13.350;  -10.254;  613.092
413.065;  -10.976;   -6.714;  629.408
413.657;   -8.689;   -7.234;  576.678
414.250;   -8.921;  -10.544;  646.681
414.842;  -10.616;   -9.744;  676.353
415.434;   -7.671;   -6.994;  570.463
416.027;   -4.009;   -5.893;  652.196
416.619;   -5.840;   -7.264;  713.400
417.211;   -6.681;  -10.374;  599.352
417.804;   -3.406;   -7.993;  628.499
418.396;   -7.211;   -7.234;  607.643
418.988;   -4.906;   -9.443;  659.238
419.580;   -8.328;  -10.724;  568.276
420.172;   -6.094;  -10.323;  536.196
420.764;   -1.860;   -8.793;  672.482
421.356;   -4.022;  -11.143;  636.898
421.948;   -3.944;   -8.293;  677.661
422.540;    1.292;   -7.893;  680.027
423.132;    0.888;   -7.082;  600.641
423.724;   -3.128;   -8.653;  561.267
424.316;   -0.969;  -10.213;  621.345
424.908;    2.358;   -9.762;  591.517
425.500;    2.157;   -5.572;  647.978
426.092;    3.462;   -8.422;  648.268
426.683;    2.488;   -9.283;  684.836
427.275;    5.885;   -7.852;  641.471
427.867;    7.401;   -5.272;  668.948
428.458;    6.814;   -7.682;  732.344
429.050;    5.664;  -10.612;  680.749
429.642;    7.916;   -9.882;  743.124
430.233;    8.143;   -6.962;  569.356
430.825;   10.115;   -6.842;  724.809
431.416;    6.875;   -9.672;  698.241
432.008;   10.939;   -6.552;  651.723
432.599;   11.597;   -6.891;  656.073
433.190;    8.297;  -10.912;  637.670
433.782;    7.739;  -11.172;  590.395
434.373;   15.552;   -6.061;  884.765
434.964;   14.359;   -8.251;  602.920
435.556;   11.542;   -9.722;  634.537
436.147;   14.133;   -9.082;  758.490
436.738;   14.453;   -8.041;  701.099
437.329;   19.616;   -7.341;  721.723
437.920;   12.033;   -8.162;  666.688
438.511;   12.669;  -11.802;  564.526
439.103;   18.729;  -10.191;  623.998
439.694;   20.943;   -7.601;  681.583
440.285;   21.766;   -8.541;  764.432
440.876;   20.020;   -9.751;  845.738
441.466;   19.557;   -9.401;  575.162
442.057;   24.348;   -7.760;  665.814
442.648;   22.822;   -9.971;  746.255
443.239;   21.610;  -11.001;  620.477
443.830;   26.500;   -7.990;  704.958
444.421;   27.523;   -7.910;  655.474
445.011;   24.696;   -8.131;  693.619
445.602;   24.124;   -7.111;  743.126
446.193;   26.546;  -10.920;  488.117
446.783;   30.866;   -6.500;  640.397
447.374;   26.194;   -8.671;  692.759
447.964;   26.590;  -10.781;  713.770
448.555;   34.856;   -9.650;  822.742
449.145;   32.231;   -8.660;  662.853
449.736;   32.606;   -8.990;  803.179
450.326;   32.618;   -9.500;  713.626
450.917;   37.021;   -8.680;  675.324
451.507;   36.482;   -7.520;  600.661
452.097;   37.232;   -8.590;  746.267
452.688;   37.778;  -11.340;  742.160
453.278;   37.741;  -10.100;  566.840
453.868;   42.545;   -6.019;  793.550
454.458;   40.622;   -9.440;  651.141
455.048;   40.481;  -10.560;  711.783
455.639;   41.733;  -11.799;  567.096
456.229;   45.688;   -6.899;  710.694
456.819;   47.179;   -7.389;  751.158
457.409;   48.206;  -11.119;  773.993
457.999;   50.380;   -9.289;  737.505
458.589;   50.720;   -6.139;  686.606
459.179;   49.614;   -8.729;  717.658
459.769;   48.829;   -9.789;  627.099
460.358;   53.409;  -10.259;  797.262
460.948;   53.659;   -7.299;  689.503
461.538;   53.790;  -10.289;  660.677
462.128;   52.949;  -11.269;  664.934
462.717;   58.831;   -9.368;  710.326
463.307;   62.832;   -7.908;  705.846
463.897;   58.312;   -9.599;  656.942
464.486;   57.789;   -9.769;  837.128
465.076;   61.844;   -8.048;  733.776
465.666;   65.435;   -9.358;  652.900
466.255;   62.532;   -7.919;  785.651
466.845;   62.193;  -11.689;  666.749
467.434;   64.958;   -7.818;  725.873
468.023;   66.079;   -7.678;  658.357
468.613;   63.234;  -10.939;  713.946
469.202;   68.674;  -10.118;  646.507
469.791;   72.024;   -9.108;  737.811
470.381;   74.274;   -6.058;  742.813
470.970;   74.077;  -10.428;  711.099
471.559;   73.674;  -10.268;  733.291
472.148;   76.930;   -8.448;  675.737
472.738;   78.904;   -6.917;  765.466
473.327;   78.110;  -11.978;  637.529
473.916;   78.474;  -11.888;  737.446
474.505;   82.169;   -9.437;  751.703
475.094;   85.961;   -6.747;  806.570
475.683;   85.132;   -9.367;  797.699
476.272;   85.946;  -12.637;  730.632
476.861;   88.148;  -10.027;  706.754
477.449;   94.532;   -8.716;  728.487
478.038;   89.615;   -9.577;  692.513
478.627;   90.305;   -9.718;  714.852
479.216;   97.083;   -8.947;  769.441
479.805;  100.151;   -6.256;  783.375
480.393;  100.022;   -7.937; 1008.945
480.982;   98.912;   -7.717;  874.501
481.571;  104.818;   -9.266;  858.333
482.159;  105.608;   -7.636;  705.386
482.748;  105.492;   -9.667;  821.385
483.336;  110.285;  -10.376;  858.209
483.925;  110.041;   -7.147;  774.373
484.513;  117.140;   -7.996;  758.962
485.102;  113.372;  -10.027;  810.965
485.690;  122.542;  -10.446; 1011.050
486.278;  124.283;   -8.446;  979.329
486.867;  125.244;   -6.356;  809.662
487.455;  126.233;   -9.136;  898.229
488.043;  127.934;  -10.646;  748.361
488.631;  136.308;   -7.456; 1005.079
489.220;  140.939;   -6.636;  908.626
489.808;  140.690;  -11.036;  741.415
490.396;  148.817;  -10.246;  914.645
490.984;  154.330;   -8.556;  830.161
491.572;  163.533;   -5.886;  940.315
492.160;  168.661;   -9.486;  919.081
492.748;  180.939;  -10.976;  884.341
493.336;  201.954;   -8.776; 1019.693
493.924;  227.750;   -5.465;  958.077
494.512;  253.477;   -9.986; 1066.638
495.100;  288.662;  -10.636; 1103.280
495.687;  342.557;  -10.885; 1206.373
496.275;  402.153;   -8.126; 1150.796
496.863;  468.242;  -10.586; 1281.171
497.451;  564.073;  -11.926; 1386.805
498.038;  692.364;  -10.885; 1556.729
498.626;  797.745;   -6.315; 1741.407
499.214;  947.908;   -7.326; 2016.609
499.801; 1139.466;  -11.906; 2220.633
500.389; 1371.582;  -10.466; 2312.494
500.976; 1654.119;   -5.236; 2744.849
501.564; 2079.522;   -8.936; 3148.565
502.151; 2426.628;  -13.176; 3515.999
502.738; 2816.381;  -10.646; 3971.274
503.326; 3223.036;   -9.525; 4403.796
503.913; 3631.456;  -10.856; 5161.749
504.500; 4005.817;  -11.586; 5986.420
505.088; 4371.818;  -10.336; 6381.201
505.675; 4905.357;   -6.355; 6925.547
506.262; 5571.640;   -9.046; 7619.060
506.849; 6288.041;  -10.416; 8733.969
507.436; 6810.233;  -10.305; 9790.121
508.023; 7367.945;   -5.496; 9985.472
508.610; 7610.672;   -7.856;10434.618
509.197; 8223.893;  -10.097;11198.435
509.784; 9531.529;  -10.886;12391.194
510.371;10731.695;   -9.315;13603.713
510.958;11474.593;   -9.936;14426.586
511.545;12129.280;   -9.326;15243.775
512.132;12912.132;  -10.075;15945.876
512.719;13365.920;   -7.796;16340.369
513.305;14487.670;  -10.606;18011.766
513.892;15202.460;  -11.486;19754.971
514.479;16336.529;   -9.126;20967.805
515.066;17833.486;   -6.026;22299.793
515.652;19546.885;   -8.466;22908.660
516.239;20733.340;  -10.886;23798.875
516.825;21433.479;  -11.496;25567.275
517.412;22386.779;   -5.796;28154.959
517.998;23229.428;  -10.506;28344.111
518.585;23260.963;  -10.076;27134.219
519.171;23848.082;   -8.315;27268.576
519.758;25639.621;   -8.596;28964.129
520.344;27729.965;   -8.466;30664.494
520.930;27451.857;  -11.006;32550.605
521.516;28221.793;  -10.495;35422.895
522.103;29996.303;   -5.526;38280.004
522.689;30537.592;   -8.746;37835.117
523.275;30267.473;  -11.376;37288.613
523.861;32089.441;  -11.156;37281.395
524.447;33907.086;   -8.135;37846.949
525.033;33754.488;   -7.896;38321.949
525.619;33943.820;  -12.476;38579.285
526.205;35265.383;   -9.516;40622.875
526.791;38163.273;   -6.926;42258.836
527.377;38142.539;   -8.346;42966.902
527.963;38911.992;   -8.717;42018.949
528.549;38395.813;  -11.016;42476.828
529.135;37173.820;   -8.536;41854.852
529.721;35928.227;   -9.666;41237.711
530.306;35162.746;  -10.066;41259.445
530.892;34959.285;  -11.356;41506.047
531.478;36088.215;   -6.596;43559.613
532.063;39523.250;   -8.836;47695.563
532.649;41055.184;  -10.047;50808.324
533.235;41433.266;   -9.746;51787.500
533.820;41141.258;   -6.566;52145.035
534.406;42419.848;  -10.817;51133.488
534.991;42452.281;   -9.416;49996.805
535.576;40756.859;   -9.036;48882.852
536.162;41617.633;   -6.156;46942.285
536.747;42866.055;  -11.607;45711.746
537.333;45237.836;  -11.787;48510.180
537.918;48201.703;  -12.437;50439.891
538.503;48048.289;   -7.196;50863.711
539.088;44704.750;  -10.556;50906.922
539.673;44405.883;   -8.767;52621.965
540.259;45198.844;  -10.026;52368.094
540.844;42893.695;   -7.416;50879.109
541.429;44727.117;   -9.467;52077.777
542.014;46663.453;   -9.527;52716.695
542.599;45535.957;   -9.946;52363.281
543.184;42536.566;   -7.927;53187.137
543.769;43464.602;   -9.297;54697.605
544.354;43826.078;  -10.127;53913.914
544.938;42548.430;   -9.267;49680.164
545.523;44271.156;   -6.506;47386.277
546.108;47238.488;   -9.787;49151.949
546.693;48958.426;  -11.587;51384.637
547.278;49187.586;  -10.986;51853.254
547.862;46582.313;   -8.206;51173.750
548.447;42284.996;  -10.067;51691.395
549.031;41216.363;   -9.637;52456.703
549.616;45451.070;   -9.926;52714.516
550.201;45581.816;   -6.347;52414.598
550.785;46881.973;   -7.917;52355.059
551.370;46060.742;  -10.867;54589.453
551.954;45231.926;   -9.047;58267.348
552.538;46164.875;   -7.827;59062.176
553.123;44848.902;  -10.287;58115.285
553.707;42425.121;  -12.178;56556.285
554.291;43828.938;   -8.717;56201.668
554.876;47265.336;   -7.457;55335.762
555.460;47423.293;  -10.387;54155.703
556.044;47199.883;   -9.618;53721.484
556.628;44971.141;  -11.567;53731.016
557.212;43903.602;   -8.097;54312.531
557.796;43028.926;  -11.077;53797.773
558.380;43325.508;  -11.108;56145.984
558.964;43380.730;   -9.057;57277.930
559.548;44367.977;   -6.977;56459.641
560.132;42489.512;  -11.457;54434.543
560.716;40617.746;  -11.378;54800.617
561.300;41579.836;   -9.577;57606.945
561.884;42833.742;   -7.127;58972.445
562.467;40809.551;   -7.118;57327.570
563.051;40104.980;  -13.358;54962.434
563.635;41883.684;  -10.178;52594.473
564.219;42576.063;   -7.837;50610.410
564.802;43214.820;  -11.398;49551.180
565.386;42629.375;  -12.788;48370.953
565.969;41881.863;   -9.077;48178.871
566.553;40448.734;   -6.207;49957.305
567.136;41412.016;   -8.568;50369.594
567.720;38658.020;  -11.868;49492.004
568.303;36605.621;   -8.268;50616.352
568.887;36536.391;   -8.698;50727.148
569.470;37224.691;   -6.808;51698.379
570.053;36549.293;  -13.188;52122.078
570.637;34076.320;  -12.037;52536.438
571.220;33820.375;   -8.577;51186.098
571.803;34989.383;   -8.498;51032.762
572.386;36899.254;  -10.498;49609.887
572.969;39260.027;   -9.388;48285.926
573.552;37912.770;   -8.338;47624.285
574.135;36271.734;   -8.518;45498.641
574.718;33830.012;  -13.628;41970.434
575.301;33275.066;  -10.893;41447.137
575.884;32720.119;   -8.158;40923.836
576.467;33865.453;  -10.328;45267.723
577.050;35029.738;  -13.058;48175.543
577.633;35941.922;   -9.458;47729.328
578.216;35248.535;   -8.928;47579.793
578.799;34409.027;   -9.358;47820.996
579.381;33463.680;  -11.388;48115.551
579.964;31083.586;  -11.718;47333.766
580.547;32904.668;   -8.588;46668.969
581.129;33699.434;   -8.859;44466.141
581.712;34656.266;  -10.729;44164.922
582.294;35130.090;  -11.118;46477.855
582.877;35146.719;   -5.218;48244.254
583.459;33536.574;   -8.679;47437.895
584.042;31396.070;  -10.709;46943.219
584.624;30788.174;  -11.669;46792.227
585.206;30251.650;   -8.218;46557.250
585.789;29739.391;  -10.569;45793.773
586.371;30238.422;  -11.859;43836.391
586.953;28544.594;  -10.719;42972.492
587.536;27730.031;   -7.198;42487.211
588.118;30124.545;   -8.720;42086.414
588.700;30160.063;  -10.439;43389.930
589.282;31239.457;   -9.198;43646.039
589.864;33101.176;   -9.199;43438.109
590.446;34672.168;  -11.319;43151.926
591.028;34684.531;  -11.159;42781.867
591.610;33329.590;  -11.779;42839.098
592.192;30437.941;   -7.668;42820.402
592.774;29065.588;  -11.949;40724.277
593.356;28097.713;  -12.129;39874.789
593.937;27081.488;  -10.669;39980.648
594.519;29215.848;   -6.509;42069.633
595.101;31235.447;  -10.849;42976.031
595.683;31248.713;  -11.679;44084.441
596.264;32049.375;   -9.049;43478.797
596.846;32203.529;   -8.849;43803.672
597.427;32201.990;   -9.570;42986.934
598.009;33289.723;  -12.620;42832.219
598.591;33503.688;  -10.039;42580.086
599.172;33241.535;  -10.369;43061.805
599.753;33473.102;   -9.140;41691.469
600.335;34719.770;  -11.430;40692.520
600.916;32843.234;   -9.939;39982.422
601.498;30761.436;   -8.479;40318.617
602.079;29323.211;  -10.920;40670.609
602.660;28824.418;  -11.480;41450.898
603.241;30616.779;  -11.699;41137.738
603.823;29464.086;   -9.579;38868.797
604.404;28232.918;  -10.620;38182.785
604.985;29964.730;  -10.450;38078.047
605.566;30402.264;   -9.129;38056.633
606.147;30422.965;   -7.510;37020.418
606.728;31763.021;  -10.660;37883.359
607.309;30415.059;  -11.740;38748.273
607.890;30410.344;   -9.759;38850.230
608.471;30013.867;   -8.250;37457.918
609.051;29234.324;   -9.240;36066.457
609.632;27915.293;  -12.120;35991.074
610.213;27921.691;   -9.110;37402.641
610.794;28797.289;   -8.030;38383.363
611.374;28838.201;   -8.110;40562.387
611.955;29870.789;  -13.560;38533.727
612.536;31241.707;  -11.400;36951.789
613.116;30614.113;   -8.070;37197.891
613.697;30946.559;  -10.830;38411.125
614.277;29112.863;  -11.641;38673.938
614.858;29795.727;  -13.310;37075.863
615.438;29593.033;   -7.460;35092.906
616.019;27671.977;   -7.601;33666.301
616.599;27819.918;  -12.020;34189.023
617.179;29378.457;  -11.780;36952.047
617.760;30593.990;   -8.570;39582.574
618.340;31283.088;  -11.471;38943.977
618.920;32036.240;  -11.170;37594.156
619.500;32029.602;  -11.071;37866.938
620.080;31016.945;   -7.750;37869.043
620.660;31963.006;  -12.711;36868.617
621.241;33740.395;  -10.211;36352.309
621.821;34468.277;  -10.961;35459.520
622.401;33308.766;   -7.720;35207.414
622.980;32117.000;   -8.981;35980.422
623.560;30670.121;   -9.331;37351.328
624.140;29195.098;   -9.850;34388.582
624.720;24649.602;   -7.451;32368.764
625.300;21435.645;   -9.070;32638.629
625.880;24769.906;  -12.601;34599.035
626.459;28824.701;  -11.751;36831.738
627.039;31565.969;   -9.281;38299.098
627.619;31440.715;   -8.801;38289.574
628.198;30074.287;  -12.071;37220.695
628.778;29061.912;   -9.461;37632.563
629.357;29542.156;   -8.491;38003.012
629.937;29772.521;   -9.721;38402.039
630.516;29314.160;   -9.951;37868.801
631.096;29170.326;  -11.731;35760.410
631.675;31014.826;   -8.572;35225.219
632.254;36060.254;  -11.282;35130.289
632.834;35830.258;  -13.322;35794.570
633.413;34341.004;  -10.301;35788.922
633.992;32095.371;   -8.582;34532.863
634.571;32386.787;   -8.352;33590.113
635.151;34936.555;  -11.912;34943.863
635.730;33726.918;  -10.511;35352.523
636.309;30506.930;   -7.731;35366.605
636.888;27812.467;   -9.952;36165.637
637.467;27936.404;  -11.672;37515.902
638.046;29258.246;   -8.901;39288.695
638.625;32065.285;   -7.912;38279.699
639.204;32091.854;  -10.022;37741.598
639.782;31134.574;  -12.252;38364.551
640.361;27529.883;  -10.041;36740.621
640.940;24882.322;  -11.161;34950.082
641.519;25678.451;   -9.701;34137.398
642.097;28520.752;  -11.271;35654.258
642.676;31158.465;   -8.651;35637.957
643.255;32624.922;   -8.711;36567.074
643.833;32086.328;   -9.581;37809.434
644.412;32024.076;  -13.711;37337.293
644.990;30946.535;  -11.811;37018.531
645.569;30515.250;   -9.411;36518.469
646.147;30139.236;  -10.291;36186.430
646.726;30567.641;  -12.401;36267.688
647.304;31640.775;  -10.411;36647.625
647.882;32672.322;   -9.651;39286.742
648.461;34175.914;   -9.631;39157.703
649.039;32863.016;  -11.881;35412.883
649.617;31898.936;   -9.661;34744.918
650.195;30860.445;   -9.301;35403.098
650.773;29582.877;  -10.511;35053.797
651.352;27362.787;  -11.521;33756.816
651.930;25035.891;  -12.211;31868.773
652.508;23536.459;   -9.171;33121.551
653.086;27255.922;   -9.371;33564.793
653.663;30514.680;  -13.161;34054.668
654.241;29101.223;  -13.031;35693.309
654.819;30225.988;   -9.371;36422.906
655.397;30053.678;  -10.511;38213.484
655.975;29506.227;  -10.371;39507.625
656.553;29293.904;  -10.051;39498.223
657.130;28039.881;  -10.061;40395.480
657.708;27227.088;   -9.561;39242.020
658.286;27284.646;  -11.511;38920.020
658.863;28519.762;  -10.261;40202.898
659.441;31906.885;   -7.531;39677.938
660.018;32132.699;   -9.501;40413.355
660.596;30676.340;  -13.301;39931.414
661.173;31981.604;  -11.211;39604.531
661.750;32434.369;   -9.951;39700.070
662.328;31217.580;   -9.390;39292.809
662.905;30327.283;  -11.330;38235.648
663.482;26532.322;   -9.050;36212.305
664.060;24588.813;   -8.240;35944.945
664.637;27305.031;  -10.050;35170.785
665.214;28559.479;  -11.760;34197.523
665.791;30210.383;  -10.530;34549.520
666.368;29648.246;   -9.690;35118.578
666.945;29958.656;   -9.320;36019.418
667.522;31392.750;  -11.860;36048.438
668.099;31164.213;  -10.770;36243.914
668.676;29817.305;   -6.260;35958.875
669.253;28541.949;   -7.000;37384.730
669.830;28647.168;  -10.190;36779.629
670.407;28639.340;   -9.550;35231.289
670.984;28505.215;   -9.260;35544.270
671.560;29518.971;   -9.280;35466.867
672.137;29003.096;  -11.810;34280.863
672.714;29904.592;  -11.490;34632.863
673.290;31268.930;   -7.740;35135.422
673.867;31225.051;  -10.660;36114.480
674.443;31090.869;  -12.230;36152.859
675.020;29102.766;  -10.450;35327.238
675.596;29839.730;   -9.260;35795.176
676.173;30517.920;  -10.780;35430.355
676.749;30177.070;  -13.690;33549.516
677.326;29893.217;  -11.980;32210.012
677.902;29750.650;   -8.630;32068.871
678.478;29233.537;  -10.730;32583.891
679.054;28178.951;  -10.520;32088.928
679.631;28522.824;  -11.920;30978.848
680.207;29930.775;   -7.490;33160.887
680.783;31338.682;   -9.860;35570.363
681.359;30478.049;  -13.380;36125.184
681.935;30305.016;  -12.480;35240.922
682.511;30455.766;   -7.900;34429.961
683.087;30872.236;   -7.710;34463.680
683.663;29966.055;  -11.480;34648.898
684.239;28543.439;  -14.090;34546.457
684.815;27917.676;   -7.560;35586.375
685.390;27871.736;   -9.910;35821.895
685.966;28398.566;  -11.159;35085.871
686.542;30760.781;  -11.169;34198.230
687.118;33309.816;   -5.959;32847.707
687.693;34039.043;  -10.329;32794.027
688.269;33679.121;  -12.059;33072.367
688.844;31955.822;  -10.909;33141.664
689.420;30111.879;   -8.019;33965.742
689.995;28446.115;   -8.399;34655.523
690.571;26935.924;  -10.949;33576.742
691.146;26733.939;   -9.619;32657.219
691.722;26702.217;   -8.999;32526.979
692.297;26132.654;  -11.589;33014.617
692.872;27229.887;  -11.739;34012.254
693.448;27192.963;  -11.059;34237.434
694.023;26184.580;  -10.139;34142.672
694.598;27958.422;   -9.029;34132.031
695.173;28854.967;  -13.319;34205.250
695.748;27821.115;  -10.169;32882.488
696.323;27751.711;   -8.339;32864.906
696.898;27920.846;   -8.169;33170.004
697.473;28251.475;  -12.309;32432.984
698.048;27661.916;  -10.989;31649.303
698.623;27248.383;   -9.329;30778.141
699.198;28448.414;   -9.849;31140.119
699.773;29965.740;  -12.329;31764.299
700.348;28874.779;  -10.389;31780.816
700.922;28899.113;   -9.269;32046.375
701.497;30137.205;   -9.329;32603.574
702.072;30529.590;  -10.789;34799.871
702.646;29028.469;  -10.839;35793.172
703.221;26682.666;   -9.099;35201.590
703.795;28380.559;  -10.939;34764.527
704.370;28907.814;  -12.859;34307.367
704.944;29116.074;  -11.559;33509.887
705.519;29653.148;   -7.939;31388.584
706.093;30749.637;  -10.499;31340.104
706.668;31340.248;  -11.289;32630.281
707.242;30194.307;  -11.509;32728.779
707.816;28951.135;   -9.639;32947.238
708.390;27504.283;  -11.429;33277.855
708.965;27879.023;  -11.869;33834.336
709.539;27776.021;  -11.689;33709.273
710.113;27795.961;  -10.478;33044.313
710.687;27409.391;  -10.228;31953.992
711.261;26017.355;  -13.698;30505.949
711.835;25767.576;  -13.378;30262.369
712.409;25951.129;   -9.698;31254.447
712.983;27923.045;  -11.898;32754.986
713.557;29337.340;  -15.138;34018.824
714.131;29344.555;  -14.098;34579.625
714.704;28346.941;   -9.958;33890.262
715.278;25783.488;  -10.028;33531.102
715.852;24511.422;  -11.148;33601.660
716.425;25579.887;   -9.068;33515.117
716.999;26816.043;  -10.038;33185.555
717.573;27682.307;   -9.798;33905.996
718.146;28653.521;  -12.378;35199.293
718.720;28790.557;  -11.918;35060.551
719.293;28803.709;   -8.088;34973.230
719.867;31837.451;  -10.888;36394.449
720.440;31801.906;  -11.938;36663.008
721.013;30070.797;  -12.818;35102.426
721.587;28304.939;  -10.298;33985.266
722.160;26877.609;  -10.048;33524.965
722.733;25814.113;  -12.108;32987.043
723.306;26030.547;  -10.818;33066.301
723.880;28162.432;   -8.908;33399.500
724.453;30723.590;   -9.878;33468.297
725.026;30214.973;  -11.188;33816.637
725.599;27256.375;  -11.678;32797.996
726.172;26861.215;   -9.618;33187.434
726.745;27781.977;   -8.258;35136.613
727.318;28980.764;  -12.978;35751.730
727.891;29912.279;  -12.148;35890.430
728.463;29536.893;   -8.968;34822.090
729.036;28080.900;  -10.188;32895.086
729.609;28534.244;  -11.788;31823.225
730.182;25890.412;  -11.788;31445.283
730.754;23575.387;  -10.268;32373.223
731.327;24018.074;   -9.998;33676.820
731.900;24351.768;  -12.228;33417.000
732.472;24843.297;  -13.848;31978.498
733.045;26335.607;   -8.698;30368.777
733.617;26487.076;  -10.607;30574.215
734.190;27003.943;  -11.507;31280.975
734.762;24958.449;  -13.647;31674.412
735.334;22959.949;   -9.767;31247.291
735.907;23135.936;   -9.897;29876.211
736.479;23495.168;  -11.637;29808.488
737.051;23187.951;   -9.567;30233.547
737.623;23675.277;   -8.187;31469.086
738.195;23818.600;  -11.187;31784.225
738.768;25749.893;  -12.337;32120.523
739.340;26951.490;  -12.227;32094.342
739.912;26318.332;  -11.057;31312.680
740.484;24874.549;  -10.207;31946.238
741.056;23019.168;  -10.047;32984.059
741.628;23944.107;  -13.627;33897.715
742.199;26042.262;   -7.177;33213.016
742.771;24927.441;  -10.797;31369.113
743.343;23003.490;  -11.997;31865.473
743.915;22028.523;  -12.867;32388.631
744.487;21864.262;   -7.617;31079.568
745.058;21912.201;   -9.557;30570.107
745.630;22590.352;   -9.877;29970.127
746.201;24057.174;  -14.177;29186.766
746.773;25031.410;   -9.237;28805.723
747.344;24816.303;   -9.847;29591.223
747.916;22759.545;  -11.657;31412.201
748.487;22556.309;  -10.587;32194.898
749.059;23862.980;   -8.707;32533.719
749.630;24620.061;  -10.537;32158.518
750.201;23660.893;  -11.687;30855.395
750.773;21985.895;  -11.647;28622.555
751.344;21647.021;   -7.147;28405.732
751.915;22477.053;   -9.757;28461.551
752.486;22851.592;  -12.427;27842.850
753.057;21002.438;  -12.227;27845.008
753.628;19698.555;  -10.417;27728.107
754.199;20455.469;  -11.767;27381.086
754.770;21487.750;  -11.187;25882.203
755.341;21802.660;  -10.507;25886.184
755.912;22093.064;   -9.387;26050.861
756.483;21706.984;  -10.647;26798.779
757.054;19968.928;  -11.837;27048.238
757.625;18489.688;  -12.716;26294.838
758.195;18179.824;   -9.666;26142.076
758.766;17820.307;   -8.656;26392.234
759.337;18382.182;  -12.856;26334.594
759.907;19742.795;  -13.366;27579.652
760.478;20695.541;   -8.576;28352.770
761.048;20350.084;  -10.526;27325.088
761.619;19325.498;  -11.116;26460.428
762.189;19278.605;  -12.136;26029.826
762.760;20162.742;   -9.456;26430.145
763.330;21391.434;   -7.136;26670.902
763.900;21120.965;  -11.786;26603.021
764.471;18824.625;  -11.546;25542.740
765.041;17451.029;   -8.096;24358.459
765.611;17178.336;   -8.876;23991.297
766.181;17321.326;  -12.196;24470.236
766.751;18503.527;  -11.636;24845.975
767.321;18460.518;  -10.156;24533.633
767.891;16469.318;  -11.766;24916.492
768.461;15785.490;  -14.936;24776.771
769.031;16218.712;  -12.356;24757.988
769.601;17982.979;   -7.526;24181.088
770.171;18189.162;  -10.766;23670.387
770.741;17137.174;  -13.176;22960.045
771.311;16959.795;  -10.616;22917.523
771.880;17625.346;   -9.576;23562.941
772.450;17705.992;  -10.336;24216.500
773.020;17624.326;  -13.516;24140.398
773.589;16724.369;  -13.466;24414.857
774.159;15970.981;   -8.686;23858.717
774.729;15587.599;   -9.476;22942.135
775.298;15300.485;  -13.666;22324.033
775.867;14868.868;  -11.716;21140.313
776.437;15114.801;   -9.906;20838.092
777.006;14925.307;  -12.166;20599.510
777.576;14458.209;  -12.356;20508.809
778.145;14303.908;  -11.646;20732.947
778.714;14438.725;   -8.226;21062.465
779.283;14007.612;   -9.556;20949.664
779.853;13447.709;  -14.116;20508.623
780.422;13799.857;  -11.506;20649.082
780.991;13418.902;   -9.556;21527.520
781.560;12104.951;   -9.095;22632.658
782.129;11853.941;  -12.135;23048.277
782.698;11857.228;  -10.865;23438.555
783.267;11508.740;   -9.335;23267.734
783.836;11419.837;  -11.045;22415.133
784.404;12396.492;  -13.865;20443.152
784.973;13141.290;  -13.095;19699.150
785.542;13225.092;  -11.575;19763.828
786.111;12993.405;   -9.705;20341.408
786.679;12542.521;  -12.105;20207.967
787.248;12280.322;  -12.455;19516.465
787.817;12102.637;  -11.535;18900.363
788.385;11796.895;   -9.765;17879.121
788.954;11260.934;  -14.005;17658.301
789.522;10571.234;  -11.955;17788.879
790.090;10892.363;  -10.135;18118.277
790.659;11556.317;  -10.975;18338.736
791.227;11236.400;  -13.375;18508.615
791.795;11576.337;  -12.375;17898.254
792.364;11896.327;  -10.725;17295.133
792.932;12286.177;   -9.715;16822.051
793.500;12628.622;  -12.675;17040.148
794.068;12826.813;  -13.495;17179.787
794.636;13000.171;  -10.885;16664.246
795.204;12262.873;  -11.045;16524.545
795.772;12189.862;  -13.175;17274.564
796.340;11719.233;  -12.445;17891.002
796.908;11453.701;   -9.735;17648.561
797.476;11334.162;   -9.815;17064.080
798.044;10951.804;  -13.985;16672.777
798.612;10220.323;  -13.115;17023.996
799.180; 9825.771;  -10.185;16561.615
799.747; 9655.083;   -9.055;15962.773
800.315; 9326.457;  -12.385;15296.992
800.883; 9157.062;  -15.035;14801.771
801.450; 9411.024;  -10.365;14534.430
802.018; 9551.685;   -9.855;14173.248
802.585; 9549.676;  -11.905;14029.547
803.153; 9521.049;  -11.585;13836.846
803.720; 9316.313;   -9.095;13567.324
804.287; 8811.580;   -9.135;13360.622
804.855; 8274.281;  -11.604;13681.981
805.422; 8120.665;  -11.794;13536.560
805.989; 8212.915;  -10.734;13355.958
806.556; 8396.867;  -10.444;13747.896
807.124; 8648.820;  -12.764;13987.376
807.691; 8618.163;  -12.964;14038.674
808.258; 8448.658;  -11.134;14120.152
808.825; 8129.863;   -9.854;13860.111
809.392; 8248.100;  -10.504;13268.790
809.959; 7777.856;  -13.054;12680.389
810.526; 7235.558;   -8.294;12427.308
811.093; 7163.044;   -8.394;12030.105
811.659; 7825.964;  -12.304;11653.664
812.226; 8490.605;  -13.944;11637.183
812.793; 8306.176;  -10.484;11611.521
813.360; 7646.203;  -10.144;11885.181
813.926; 7286.624;  -11.684;12770.539
814.493; 7077.933;  -13.644;12677.638
815.060; 6685.208;   -9.724;11974.336
815.626; 6587.782;   -9.854;11594.715
816.193; 6926.458;  -13.254;11579.474
816.759; 6973.050;  -13.204;11666.972
817.325; 6985.273;   -9.434;11325.530
817.892; 7311.762;  -10.134;11105.369
818.458; 7751.869;  -13.474;10843.928
819.024; 7434.123;  -11.854;10714.406
819.591; 7136.628;  -10.244;10469.165
820.157; 6948.178;  -10.704;10235.523
820.723; 6432.140;  -12.324;10847.563
821.289; 6110.010;   -9.444;11040.980
821.855; 6065.095;   -8.374;10357.100
822.421; 6075.541;  -10.234; 9978.918
822.987; 6048.852;  -13.294; 9754.177
823.553; 5609.040;  -10.884;10065.755
824.119; 5332.611;   -8.884;10036.294
824.685; 5475.271;   -6.784;10029.192
825.251; 5646.044;  -12.004;10199.230
825.816; 5618.111;  -11.474; 9820.189
826.382; 5312.548;   -9.174; 9297.248
826.948; 5410.861;   -9.214; 9381.347
827.513; 5842.282;  -10.774; 9450.726
828.079; 5784.339;  -11.924; 9472.444
828.645; 5170.181;  -10.543; 9292.643
829.210; 4924.677;  -10.533; 9065.341
829.776; 4878.082;  -10.753; 9132.620
830.341; 4765.448;  -10.173; 9092.878
830.906; 4908.626;  -10.743; 9078.557
831.472; 5267.899;  -11.113; 8534.535
832.037; 5128.696;  -10.603; 8677.874
832.602; 4628.681;  -13.323; 8628.692
833.167; 4339.316;  -10.823; 8879.031
833.733; 4252.428;  -10.113; 9189.790
834.298; 4377.119;  -13.583; 9052.608
834.863; 4528.100;  -12.703; 8895.087
835.428; 4558.029;  -10.523; 8824.266
835.993; 4403.349;   -6.963; 8845.385
836.558; 4217.815;  -10.763; 8888.563
837.123; 4277.563;   -9.903; 8966.582
837.688; 4541.379;   -9.913; 8617.860
838.253; 4829.717;  -10.283; 8590.699
838.817; 5019.558;  -12.963; 8443.797
839.382; 4936.187;  -14.243; 8799.356
839.947; 4631.296;  -10.733; 8810.595
840.511; 4331.404;   -9.383; 8796.394
841.076; 3956.626;  -12.563; 8347.231
841.641; 4000.356;  -12.953; 8224.330
842.205; 4117.759;   -7.043; 8223.349
842.770; 4126.003;   -8.163; 8622.107
843.334; 4223.520;  -12.503; 8410.386
843.898; 4175.043;  -11.693; 8337.465
844.463; 4162.912;  -10.203; 8506.283
845.027; 3970.287;   -9.533; 8280.962
845.591; 3791.042;  -13.443; 8231.141
846.156; 3814.882;  -13.143; 7969.179
846.720; 3741.809;   -9.433; 7768.278
847.284; 3643.227;  -11.033; 7630.957
847.848; 3503.303;  -10.403; 7472.395
848.412; 3402.503;  -11.553; 7437.394
848.976; 3441.998;   -8.393; 7674.592
849.540; 3349.054;   -8.713; 7836.011
850.104; 3378.128;  -12.463; 7913.669
850.668; 3735.019;  -12.973; 7694.508
851.232; 3926.983;  -10.793; 7756.887
851.796; 3809.437;  -10.662; 7926.545
852.359; 3486.712;  -13.082; 7827.844
852.923; 3292.068;  -12.192; 7641.163
853.487; 3152.256;  -11.912; 7342.501
854.050; 3140.263;  -10.892; 7042.820
854.614; 3282.421;  -13.992; 7151.338
855.177; 3390.957;  -11.732; 7105.077
855.741; 3426.687;   -8.962; 6989.675
856.304; 3314.430;   -9.442; 6596.634
856.868; 3286.703;  -14.192; 6356.272
857.431; 3413.554;  -12.702; 6468.571
857.995; 3548.696;   -9.942; 6373.210
858.558; 3592.030;   -9.112; 6324.448
859.121; 3329.599;  -12.932; 6408.327
859.684; 3133.541;  -13.442; 6347.886
860.247; 3226.603;  -10.632; 6321.264
860.810; 3275.557;  -11.272; 6301.903
861.374; 3036.949;   -9.832; 6607.881
861.937; 2765.965;  -11.762; 6408.200
862.500; 2757.250;   -9.722; 6572.639
863.062; 2896.121;  -10.512; 6387.297
863.625; 3026.395;  -11.232; 6190.836
864.188; 3186.825;  -14.112; 5807.254
864.751; 3281.679;  -11.302; 5682.413
865.314; 3213.669;  -10.112; 5547.492
865.876; 2983.053;  -12.182; 5500.150
866.439; 2928.630;  -10.722; 5415.909
867.002; 2894.685;   -9.252; 5501.567
867.564; 2724.719;   -9.572; 5413.946
868.127; 2518.510;  -13.142; 5160.325
868.689; 2393.659;  -12.902; 5133.183
869.252; 2287.795;   -9.732; 5252.382
869.814; 2183.900;   -9.432; 5297.141
870.377; 2177.418;  -11.552; 5390.919
870.939; 2234.148;   -9.052; 5599.898
871.501; 2311.842;  -10.982; 5248.336
872.063; 2334.835;  -12.292; 4854.235
872.626; 2272.165;  -14.912; 4817.074
873.188; 2251.167;  -13.112; 4987.732
873.750; 2225.310;  -13.442; 4868.651
874.312; 2139.555;   -9.402; 4779.330
874.874; 2062.290;  -11.062; 4866.348
875.436; 1982.592;  -13.931; 4718.887
875.998; 1978.692;   -9.561; 4660.005
876.560; 2011.088;  -11.321; 4462.964
877.122; 1953.170;  -12.221; 4145.042
877.683; 1839.420;  -12.191; 4056.481
878.245; 1750.473;  -12.101; 3950.740
878.807; 1787.122;   -8.971; 4058.958
879.369; 1813.692;  -12.071; 3954.677
879.930; 1724.759;  -14.621; 3941.495
880.492; 1653.293;  -10.311; 4067.014
881.053; 1628.776;  -10.901; 3859.633
881.615; 1538.195;  -14.411; 3776.071
882.176; 1434.611;  -13.761; 3734.750
882.738; 1373.067;   -9.181; 3678.489
883.299; 1346.372;  -11.791; 3405.407
883.860; 1329.638;  -13.121; 3351.106
884.422; 1314.603;  -11.211; 3394.044
884.983; 1280.375;  -10.091; 3166.443
885.544; 1213.716;   -8.461; 3189.802
886.105; 1136.667;  -12.361; 3160.360
886.666; 1068.686;  -14.141; 3093.059
887.227; 1005.654;  -11.361; 2941.957
887.788;  942.742;  -11.401; 2974.836
888.349;  874.449;  -13.791; 2721.214
888.910;  863.031;  -13.191; 2696.493
889.471;  868.168;   -9.881; 2560.172
890.032;  849.849;   -9.881; 2558.190
890.593;  820.404;  -10.371; 2567.669
891.153;  791.334;  -13.301; 2460.307
891.714;  744.879;  -11.431; 2372.046
892.275;  711.775;  -11.291; 2309.505
892.835;  681.153;  -11.471; 2382.543
893.396;  632.215;  -11.541; 2295.502
893.956;  573.455;  -11.181; 2162.420
894.517;  529.954;  -11.741; 2125.439
895.077;  521.731;  -11.671; 2086.978
895.638;  523.106;  -11.311; 2126.316
896.198;  498.783;   -9.831; 1838.275
896.758;  455.038;   -8.421; 1892.813
897.319;  420.414;  -12.351; 1792.232
897.879;  405.445;  -13.511; 1762.751
898.439;  381.192;  -12.001; 1661.149
898.999;  354.572;  -10.180; 1781.468
899.559;  344.286;  -12.030; 1703.347
900.119;  339.741;  -15.710; 1537.525
900.679;  335.152;   -8.900; 1638.384
901.239;  321.387;   -8.340; 1527.902
901.799;  311.574;  -13.910; 1456.441
902.359;  304.035;  -13.460; 1357.140
902.919;  297.833;  -11.490; 1331.118
903.479;  284.276;  -12.110; 1317.257
904.038;  264.659;  -11.720; 1262.595
904.598;  248.359;  -13.610; 1152.034
905.158;  244.297;  -11.040; 1240.893
905.717;  238.299;  -10.900; 1233.691
906.277;  228.469;  -15.080; 1217.330
906.836;  217.911;  -13.380; 1222.408
907.396;  209.286;  -10.780; 1193.047
907.955;  201.428;   -8.500; 1182.526
908.515;  195.699;  -12.760; 1099.364
909.074;  189.422;  -11.900; 1092.863
909.633;  184.381;   -8.950; 1069.121
910.192;  179.246;   -8.770; 1196.460
910.752;  173.352;  -12.390; 1029.960
911.311;  168.976;  -13.680; 1009.780
911.870;  165.945;  -12.370;  971.460
912.429;  166.981;  -10.900; 1094.080
912.988;  166.360;  -11.690; 1081.060
913.547;  163.421;  -13.240;  940.380
914.106;  157.279;  -11.990;  999.420
914.665;  153.757;   -9.990;  984.020
915.224;  152.896;  -12.880; 1035.760
915.782;  153.158;  -12.350;  922.560
916.341;  152.854;   -9.110; 1049.840
916.900;  148.156;   -9.270;  925.260
917.458;  146.161;  -13.240;  884.220
918.017;  145.574;  -13.550;  942.600
918.576;  146.047;  -12.320;  904.440
919.134;  144.446;  -11.490;  837.980
919.693;  141.933;  -13.670;  893.060
920.251;  141.083;  -15.470;  876.500
920.809;  140.094;  -11.290;  839.580
921.368;  139.858;  -10.210;  885.360
921.926;  139.229;  -12.140;  842.940
922.484;  137.741;  -13.080;  903.360
923.042;  136.547;  -11.720;  880.340
923.601;  139.422;   -7.480;  998.680
924.159;  138.513;  -11.570;  935.560
924.717;  135.099;  -13.840;  841.080
925.275;  134.510;  -10.640;  903.240
925.833;  133.546;  -11.540;  779.320
926.391;  134.254;  -12.960;  938.380
926.949;  132.403;  -14.130;  857.680
927.506;  133.941;  -11.750;  903.500
928.064;  133.771;  -10.250;  877.580
928.622;  133.895;  -13.030;  880.100
929.180;  132.720;  -13.400;  814.180
929.737;  133.653;  -10.700;  808.540
930.295;  137.306;  -10.070;  928.480
930.853;  138.921;  -11.960;  849.100
931.410;  139.895;  -13.120;  821.120
931.968;  138.951;  -10.770;  940.660
932.525;  138.522;  -10.680;  909.380
933.082;  140.040;  -13.130;  811.440
933.640;  140.399;  -13.210;  925.900
934.197;  139.136;  -11.060;  886.360
934.754;  140.209;   -9.580;  897.780
935.312;  143.109;  -14.000;  863.340
935.869;  147.393;  -10.710; 1012.980
936.426;  148.202;   -9.860;  872.800
936.983;  148.718;   -9.710;  889.020
937.540;  149.072;  -13.990;  838.280
938.097;  148.971;  -14.040;  940.120
938.654;  147.795;  -10.310;  898.860
939.211;  150.893;  -10.560;  952.480
939.768;  154.067;  -13.900;  915.420
940.324;  158.391;  -14.760;  904.200
940.881;  159.792;  -10.370;  878.500
941.438;  161.395;   -8.260; 1021.200
941.995;  157.212;  -12.540;  992.560
942.551;  153.207;  -14.670;  875.620
943.108;  153.273;  -10.450;  937.920
943.664;  155.440;  -10.750;  869.340
944.221;  160.037;  -11.550; 1088.140
944.777;  156.691;  -14.770;  869.680
945.334;  157.515;  -12.820;  884.840
945.890;  159.516;  -10.130;  946.480
946.446;  159.438;  -13.470;  947.020
947.003;  160.897;  -12.120;  964.940
947.559;  164.290;   -9.980; 1063.040
948.115;  164.621;   -9.080; 1026.540
948.671;  162.155;  -10.830;  967.300
949.227;  159.529;  -12.440;  859.560
949.783;  157.085;  -12.910;  858.900
950.339;  159.167;  -10.270;  991.000
950.895;  159.225;  -13.630; 1023.840
951.451;  158.367;  -15.100;  925.280
952.007;  157.230;  -11.330;  998.540
952.563;  157.680;  -10.580;  937.780
953.118;  154.919;  -13.440;  904.940
953.674;  156.028;  -12.710;  935.780
954.230;  154.943;  -10.350;  949.640
954.785;  152.569;   -9.190;  936.640
955.341;  150.738;  -11.200;  998.160
955.897;  148.812;  -16.560;  834.660
956.452;  151.850;  -12.570;  953.840
957.008;  151.250;   -7.970; 1083.640
957.563;  148.541;  -11.940; 1009.540
958.118;  142.409;  -13.450;  877.700
958.674;  142.677;  -12.030;  946.780
959.229;  145.076;   -9.410; 1013.980
959.784;  142.498;  -12.000;  832.400
960.339;  141.491;  -14.780; 1001.280
960.894;  139.290;   -9.860;  963.760
961.449;  135.023;   -9.970;  859.960
962.004;  134.778;  -10.900; 1212.840
962.559;  128.282;  -13.150;  860.140
963.114;  126.676;  -13.740;  742.480
963.669;  126.182;   -9.820;  915.500
964.224;  124.175;  -13.890;  874.340
964.779;  123.399;  -12.600;  828.420
965.334;  124.150;  -10.950; 1017.860
965.888;  124.042;  -11.170;  875.360
966.443;  127.095;  -12.540;  972.380
966.998;  127.254;  -15.780;  819.460
967.552;  127.094;   -9.760;  908.380
968.107;  122.813;   -9.060;  868.300
968.661;  123.623;  -11.950;  922.440
969.216;  124.008;  -12.800;  856.280
969.770;  124.525;  -11.210;  917.200
970.324;  124.213;  -11.610;  923.140
970.879;  120.811;  -11.370;  947.180
971.433;  117.345;  -12.540;  952.720
971.987;  111.613;  -11.320;  895.340
972.541;  109.540;  -10.720;  917.100
973.095;  108.662;   -9.680; 1009.460
973.649;  107.103;  -11.440;  809.480
974.203;  105.327;  -11.210;  829.040
974.757;  106.246;  -10.240;  855.220
975.311;  106.291;  -13.720;  872.600
975.865;  105.102;  -13.770;  881.820
976.419;  103.345;  -11.690;  857.400
976.973;  101.479;   -9.510;  849.620
977.526;   97.960;  -12.620;  949.920
978.080;   88.073;  -12.010;  796.780
978.634;   82.770;  -10.170;  921.320
979.187;   76.734;   -9.020;  905.400
979.741;   76.598;   -9.820; 1018.380
980.294;   74.914;  -14.870;  789.160
980.848;   74.475;  -12.380;  717.220
981.401;   78.182;  -10.350;  816.540
981.955;   80.678;  -13.720;  844.300
982.508;   80.486;  -11.490;  746.340
983.061;   82.927;  -10.000;  915.260
983.615;   79.694;  -11.480;  798.800
984.168;   77.956;  -13.220;  770.080
984.721;   78.417;  -13.960;  880.760
985.274;   78.125;  -10.870;  867.500
985.827;   76.952;   -9.790;  834.220
986.380;   75.911;  -13.120;  721.340
986.933;   74.928;  -12.450;  864.800
987.486;   74.302;  -10.210;  861.920
988.039;   73.607;   -8.430;  863.100
988.591;   72.785;  -10.520;  893.260
989.144;   69.806;  -14.860;  737.260
989.697;   69.618;  -13.080;  758.740
990.250;   70.060;  -10.150;  858.100
990.802;   69.325;  -13.430;  755.860
991.355;   70.094;  -12.750;  974.880
991.907;   68.204;  -12.040;  864.320
992.460;   66.314;  -11.330;  753.760
993.012;   65.823;  -13.610;  749.540
993.565;   64.332;  -13.460;  711.360
994.117;   65.946;   -9.360;  950.780
994.669;   61.159;  -11.300;  701.320
995.221;   59.353;  -13.540;  791.920
995.774;   57.712;  -13.430;  787.580
996.326;   57.024;  -12.520;  740.220
996.878;   57.364;  -10.950;  838.420
997.430;   56.137;  -14.300;  699.860
997.982;   54.446;  -13.760;  750.140
998.534;   54.124;  -11.530;  739.060
999.086;   53.325;  -10.310;  738.220
999.638;   51.962;  -12.530;  661.380
1000.190;   50.792;  -11.840;  699.320
1000.741;   51.749;  -10.260;  742.700
1001.293;   50.762;   -8.860;  686.020
1001.845;   48.823;  -13.700;  676.640
1002.396;   49.015;  -12.100;  743.400
1002.948;   49.177;  -12.760;  737.400
1003.500;   46.892;  -10.380;  723.780
1004.051;   47.901;  -11.900;  907.580
1004.603;   46.375;  -12.250;  791.820
1005.154;   43.431;  -13.210;  608.980
1005.705;   41.851;  -10.950;  723.960
1006.257;   41.904;  -13.880;  707.220
1006.808;   40.708;  -12.840;  685.460
1007.359;   41.477;  -10.570;  763.240
1007.910;   39.534;   -9.620;  646.640
1008.461;   40.267;  -13.630;  732.940
1009.013;   38.145;  -17.200;  588.340
1009.564;   39.989;  -10.200;  793.520
1010.115;   37.688;  -12.570;  597.040
1010.665;   36.914;  -15.150;  602.160
1011.216;   36.758;  -14.480;  667.920
1011.767;   36.766;  -11.340;  697.920
1012.318;   36.592;   -9.780;  736.980
1012.869;   36.132;  -12.380;  679.000
1013.419;   34.720;  -15.560;  603.120
1013.970;   35.361;  -11.010;  666.640
1014.521;   35.082;  -11.610;  620.620
1015.071;   35.857;  -13.450;  670.380
1015.622;   34.065;  -13.870;  635.460
1016.172;   34.572;  -11.610;  596.820
1016.723;   33.580;  -12.120;  614.380
1017.273;   34.037;  -13.620;  604.160
1017.823;   33.490;  -14.140;  650.340
1018.374;   33.147;  -12.800;  611.760
1018.924;   32.947;  -12.340;  716.880
1019.474;   33.370;  -11.410;  718.880
1020.024;   31.684;  -14.770;  657.580
1020.574;   31.749;   -9.780;  726.160
1021.124;   32.810;   -8.560;  673.580
1021.674;   31.803;  -15.190;  559.120
1022.224;   32.719;  -13.530;  708.940
1022.774;   32.097;  -13.280;  668.820
1023.324;   32.641;  -10.690;  753.520
1023.874;   33.082;  -10.240;  875.760
1024.423;   30.492;  -12.540;  613.700
1024.973;   30.348;  -10.010;  610.760
1025.523;   29.726;  -10.550;  620.960
1026.072;   29.303;  -13.560;  606.420
1026.622;   29.464;  -15.120;  675.740
1027.172;   30.101;  -11.260;  715.660
1027.721;   29.422;  -11.410;  601.220
1028.270;   29.856;  -13.530;  663.400
1028.820;   29.657;  -13.680;  638.080
1029.369;   29.074;  -13.520;  612.700
1029.918;   28.890;  -10.980;  649.840
1030.468;   28.325;  -13.530;  564.780
1031.017;   28.768;  -13.170;  634.800
1031.566;   27.698;  -12.200;  608.900
1032.115;   28.865;   -9.960;  694.500
1032.664;   28.028;  -13.210;  596.480
1033.213;   28.230;  -12.500;  735.420
1033.762;   27.641;  -11.910;  635.620
1034.311;   27.312;   -9.640;  677.220
1034.860;   27.537;  -13.310;  691.000
1035.408;   27.426;  -11.830;  722.720
1035.957;   27.819;  -12.000;  719.540
1036.506;   25.715;  -11.690;  530.800
1037.055;   28.143;  -10.990;  844.320
1037.603;   26.480;  -15.120;  664.000
1038.152;   25.061;  -12.450;  534.760
1038.700;   25.408;  -10.560;  585.740
1039.249;   24.911;  -11.080;  681.220
1039.797;   25.807;  -12.540;  633.360
1040.345;   25.246;  -11.920;  705.420
1040.894;   24.856;  -11.410;  625.300
1041.442;   24.480;  -14.320;  632.200
1041.990;   24.248;  -16.240;  559.160
1042.538;   23.654;  -11.680;  536.180
1043.087;   23.388;  -10.760;  570.860
1043.635;   24.644;  -11.850;  670.500
1044.183;   23.216;  -15.480;  586.400
1044.731;   23.150;  -11.770;  576.000
1045.279;   23.162;  -13.090;  674.920
1045.827;   25.166;  -12.440;  892.400
1046.374;   22.164;  -13.840;  515.420
1046.922;   22.085;  -13.220;  590.580
1047.470;   23.535;  -10.230;  691.300
1048.018;   23.213;  -14.590;  647.960
1048.565;   24.220;  -12.050;  708.600
1049.113;   21.853;  -11.650;  557.000
1049.660;   22.315;  -10.510;  629.660
1050.208;   22.342;  -13.310;  675.640
1050.755;   21.329;  -15.900;  606.580
1051.303;   22.357;  -11.430;  686.820
1051.850;   21.524;   -8.480;  635.120
1052.397;   19.438;  -15.010;  473.960
1052.945;   20.421;  -13.960;  617.760
1053.492;   22.577;  -13.150;  741.840
1054.039;   21.444;   -9.630;  720.180
1054.586;   20.532;  -13.680;  557.240
1055.133;   21.546;  -14.570;  693.140
1055.680;   21.720;  -13.820;  646.620
1056.227;   20.284;  -11.730;  542.780
1056.774;   22.102;  -12.480;  794.980
1057.321;   19.402;  -13.930;  523.260
1057.868;   19.750;  -11.690;  651.320
1058.415;   19.074;   -9.520;  651.980
1058.961;   19.843;  -13.160;  678.940
1059.508;   19.973;  -12.920;  643.820
1060.055;   19.157;  -11.920;  581.780
1060.601;   20.403;  -11.500;  624.300
1061.148;   19.554;  -14.330;  616.820
1061.694;   18.554;  -16.870;  592.580
1062.241;   19.288;  -10.330;  596.320
1062.787;   18.766;  -10.620;  663.140
1063.334;   20.800;  -10.110;  808.560
1063.880;   18.468;  -13.400;  668.360
1064.426;   18.675;  -10.680;  706.820
1064.972;   17.370;   -9.920;  601.340
1065.518;   16.551;  -10.980;  566.640
1066.065;   18.122;  -14.890;  624.460
1066.611;   17.079;  -12.870;  598.800
1067.157;   18.237;  -12.950;  641.860
1067.703;   17.368;  -13.540;  668.480
1068.249;   17.990;  -13.540;  605.220
1068.794;   16.902;  -12.600;  626.880
1069.340;   16.246;  -10.620;  578.960
1069.886;   17.230;  -12.830;  590.700
1070.432;   15.994;  -14.870;  541.720
1070.977;   15.715;  -11.980;  601.080
1071.523;   16.849;   -8.200;  573.060
1072.068;   16.451;  -12.330;  582.000
1072.614;   16.292;  -16.370;  527.760
1073.160;   17.377;  -11.100;  687.040
1073.705;   15.999;  -10.480;  572.520
1074.250;   15.657;  -14.520;  559.900
1074.796;   17.200;  -11.460;  655.160
1075.341;   16.398;  -11.950;  664.100
1075.886;   16.192;  -11.460;  594.240
1076.431;   15.335;  -13.770;  649.880
1076.976;   15.416;  -12.680;  639.220
1077.521;   14.953;  -13.170;  583.080
1078.067;   14.483;  -10.860;  579.400
1078.612;   14.509;  -13.920;  661.620
1079.156;   15.074;  -13.880;  601.540
1079.701;   15.090;  -13.120;  693.260
1080.246;   15.583;   -9.940;  696.300
1080.791;   14.193;  -14.740;  625.020
1081.336;   14.442;  -13.750;  659.320
1081.880;   14.544;  -13.400;  649.680
1082.425;   13.600;  -12.220;  573.480
1082.970;   15.001;  -11.610;  717.040
1083.514;   13.719;  -13.580;  597.000
1084.059;   13.663;  -12.810;  586.720
1084.603;   13.335;  -12.320;  565.840
1085.147;   13.090;  -13.190;  645.220
1085.692;   13.846;  -12.480;  716.800
1086.236;   12.621;  -13.020;  503.140
1086.780;   14.079;   -9.190;  751.440
1087.325;   13.559;  -12.480;  654.620
1087.869;   12.777;  -12.450;  610.700
1088.413;   13.987;  -12.240;  705.040
1088.957;   11.416;   -9.020;  543.400
1089.501;   13.183;  -10.320;  766.640
1090.045;   13.128;  -12.720;  726.480
1090.589;   11.101;  -13.690;  569.920
1091.133;   12.235;  -10.020;  673.340
1091.676;   12.261;  -12.330;  591.940
1092.220;   12.016;  -14.970;  600.920
1092.764;   13.217;  -12.430;  706.960
1093.307;   12.396;   -9.800;  673.780
1093.851;   10.535;  -14.970;  556.540
1094.395;   12.095;  -15.310;  683.140
1094.938;   10.847;  -10.370;  632.520
1095.482;   12.115;  -11.050;  559.800
1096.025;   12.033;  -11.840;  710.880
1096.568;   12.466;  -12.840;  779.280
1097.112;    9.851;  -14.700;  508.180
1097.655;   11.167;   -8.720;  603.000
1098.198;   10.176;  -13.610;  600.180
1098.741;    9.993;  -13.350;  612.860
1099.285;   11.023;  -11.230;  657.300
1099.828;    8.664;  -11.840;  439.400
1100.371;   10.406;  -10.840;  608.160
1100.914;   10.475;  -14.190;  682.660
1101.457;   10.928;  -11.240;  679.900
1101.999;    9.413;  -11.270;  584.680
1102.542;    9.819;  -11.480;  641.440
1103.085;    9.656;  -11.750;  658.500
1103.628;   10.267;  -11.400;  762.060
1104.170;    9.625;  -10.490;  588.280
1104.713;   10.328;  -10.600;  646.700
1105.256;    9.383;  -14.360;  557.440
1105.798;    7.999;  -13.210;  499.980
1106.341;    9.956;  -10.270;  728.900
1106.883;    8.955;  -12.200;  521.340
1107.425;    8.842;  -13.110;  668.180
1107.968;    8.872;  -12.840;  612.380
1108.510;    9.545;   -6.480;  684.960
1109.052;    7.534;  -13.940;  612.620
1109.594;    7.948;  -13.690;  554.440
1110.136;    8.978;  -11.880;  643.220
1110.679;    7.828;   -9.500;  633.080
1111.221;    8.468;  -14.160;  604.460
1111.763;    7.626;  -13.980;  559.220
1112.304;    7.635;  -13.880;  547.140
1112.846;    8.644;  -12.210;  666.240
1113.388;   10.444;  -11.390;  942.180
1113.930;    8.009;  -14.540;  694.200
1114.472;    7.702;  -12.640;  606.540
1115.013;    6.268;  -11.620;  551.280
1115.555;    6.726;  -13.640;  587.100
1116.097;    5.462;  -15.380;  579.480
1116.638;    6.938;  -12.640;  684.600
1117.180;    7.402;   -9.850;  667.740
1117.721;    6.536;  -13.690;  568.580
1118.262;    7.344;  -12.680;  677.960
1118.804;    7.414;  -12.530;  637.340
1119.345;    6.417;  -11.690;  578.400
1119.886;    6.972;  -13.380;  704.040
1120.427;    5.602;  -14.070;  589.020
1120.969;    6.190;  -13.500;  597.920
1121.510;    5.094;  -11.480;  563.060
1122.051;    6.121;  -12.830;  723.580
1122.592;    4.982;  -14.290;  655.420
1123.133;    4.508;  -12.400;  547.940
1123.673;    6.190;  -10.130;  706.480
1124.214;    5.259;  -12.930;  612.460
1124.755;    6.750;  -14.380;  639.460
1125.296;    6.078;  -14.000;  627.320
1125.836;    6.348;  -10.070;  691.500
1126.377;    5.716;  -12.640;  599.660
1126.918;    6.192;  -12.960;  614.980
1127.458;    5.025;  -13.350;  622.220
1127.999;    5.868;  -10.750;  656.980
1128.539;    5.104;  -12.350;  694.240
1129.079;    4.614;  -14.860;  632.720
1129.620;    4.002;  -13.840;  558.100
1130.160;    4.100;  -12.330;  539.480
1130.700;    5.320;  -14.530;  640.840
1131.240;    5.441;  -12.530;  643.700
1131.781;    4.322;  -14.450;  619.680
1132.321;    4.824;   -9.790;  599.120
1132.861;    3.991;  -14.860;  564.200
1133.401;    3.694;  -14.290;  593.940
1133.941;    3.729;  -11.750;  626.280
1134.481;    4.036;   -9.920;  597.580
1135.020;    3.066;  -12.290;  609.160
1135.560;    4.175;  -11.650;  674.940
1136.100;    3.043;  -16.270;  501.160
1136.640;    2.842;  -10.890;  510.480
1137.179;    3.242;  -14.180;  537.960
1137.719;    2.483;  -16.250;  605.400
1138.258;    3.746;  -14.230;  587.360
1138.798;    3.700;   -9.090;  663.780
1139.337;    1.619;  -15.130;  482.840
1139.877;    3.202;  -13.680;  642.360
1140.416;    4.634;  -11.320;  878.060
1140.955;    2.243;  -10.860;  535.380
1141.494;    2.856;  -12.920;  669.280
1142.034;    2.576;  -13.930;  583.520
1142.573;    3.290;  -11.440;  646.280
1143.112;    1.931;  -12.000;  553.480
1143.651;    2.484;  -13.670;  536.480
1144.190;    2.918;  -12.730;  691.640
1144.729;    2.816;  -14.560;  607.420
1145.267;    2.548;  -11.830;  584.900
1145.806;    3.301;  -12.230;  637.040
1146.345;    1.919;  -14.130;  635.020
1146.884;    1.968;  -11.590;  622.500
1147.422;    0.916;  -12.550;  533.060
1147.961;    3.477;  -11.180;  708.460
1148.500;    3.266;  -11.510;  669.720
1149.038;    3.065;  -11.640;  632.500
1149.577;    2.528;  -10.130;  698.640
1150.115;   -0.340;  -13.970;  452.280
1150.653;    1.580;  -14.520;  607.340
1151.192;    1.300;  -12.810;  552.920
1151.730;    1.230;   -9.100;  652.560
1152.268;    1.512;  -12.220;  589.520
1152.806;    1.664;  -14.140;  571.180
1153.344;   -0.392;  -12.350;  577.640
1153.882;    0.864;   -8.980;  600.060
1154.421;   -0.369;  -15.190;  470.620
1154.958;    0.625;  -15.210;  595.240
1155.496;    1.404;  -12.850;  645.280
1156.034;    1.490;   -9.940;  721.880
1156.572;    1.819;  -13.570;  667.060
1157.110;   -0.080;  -14.590;  473.940
1157.647;    1.145;  -13.030;  676.960
1158.185;    0.421;  -12.140;  564.320
1158.723;   -1.064;  -14.390;  509.200
1159.260;    1.005;  -14.090;  701.700
1159.798;    0.226;  -11.920;  658.160
1160.335;    0.330;  -11.110;  631.820

