
Integration time [ms]:   3.276
Averaging Nr. [scans]: 1000
Smoothing Nr. [pixels]: 0
Data measured with spectrometer [name]: 7414430SP
Wave   ;Sample   ;Dark     ;Reference
[nm]   ;[counts] ;[counts] ;[counts] 

288.544;  157.525;    7.793;  793.890
289.143;  159.953;    7.462;  681.602
289.742;  161.434;    8.602;  828.814
290.341;  149.561;    1.321;  789.841
290.940;  139.212;   -0.709;  730.702
291.538;  139.707;    0.881;  881.108
292.137;  138.733;    0.122;  792.581
292.736;  142.450;   -1.929;  975.101
293.335;  137.507;   -8.229;  735.086
293.934;  139.753;   -5.279;  781.677
294.532;  140.106;   -1.369; 1031.958
295.131;  126.779;   -7.641;  834.394
295.730;  126.311;   -8.420;  809.588
296.328;  123.732;   -5.611;  783.442
296.927;  121.829;   -5.781;  779.652
297.525;  124.655;   -6.361;  781.236
298.124;  116.641;  -11.382;  654.009
298.722;  120.042;   -7.641;  761.933
299.321;  116.826;   -6.811;  708.597
299.919;  113.330;   -6.991;  751.918
300.518;  110.409;  -10.362;  689.338
301.116;  113.012;   -9.581;  691.381
301.715;  113.263;   -4.891;  730.222
302.313;  112.663;   -8.801;  704.943
302.911;  106.460;   -8.522;  733.830
303.509;  112.102;   -6.171;  925.627
304.108;  109.723;   -7.311;  760.383
304.706;  109.210;   -8.321;  801.664
305.304;  103.825;  -10.222;  796.707
305.902;  107.971;   -6.021;  784.484
306.500;  103.999;   -4.971;  728.200
307.098;  103.641;   -7.061;  746.560
307.696;  101.278;   -8.801;  780.432
308.294;  101.291;   -6.411;  731.359
308.892;  103.204;   -2.901;  759.769
309.490;   99.886;   -5.041;  712.161
310.088;   97.681;   -5.002;  788.444
310.686;  101.198;   -2.041;  821.749
311.284;   96.840;   -2.351;  766.040
311.882;   95.897;   -4.422;  731.225
312.480;   92.330;   -4.192;  697.167
313.078;   93.587;   -1.172;  808.331
313.675;   93.524;   -2.601;  691.600
314.273;   89.497;   -1.312;  797.837
314.871;   89.012;   -3.942;  589.829
315.468;   85.489;   -2.802;  652.090
316.066;   89.306;   -0.701;  694.427
316.664;   81.639;   -4.362;  656.351
317.261;   85.693;   -2.872;  910.128
317.859;   81.507;   -2.022;  768.735
318.456;   82.025;   -0.531;  830.096
319.054;   77.686;   -3.912;  787.828
319.651;   76.733;   -4.752;  759.928
320.249;   74.894;   -2.602;  810.188
320.846;   73.330;   -0.821;  714.286
321.443;   70.763;   -4.642;  832.135
322.041;   68.209;   -5.002;  812.315
322.638;   65.273;   -3.982;  701.456
323.235;   66.452;   -3.411;  665.683
323.833;   63.705;   -7.361;  740.354
324.430;   58.260;   -8.611;  615.900
325.027;   60.262;   -4.061;  876.855
325.624;   59.333;   -4.031;  644.532
326.221;   55.818;   -7.481;  689.717
326.818;   55.512;   -5.281;  818.332
327.415;   58.482;   -7.460;  748.828
328.012;   57.042;   -5.510;  690.585
328.609;   56.421;   -7.880;  731.389
329.206;   55.473;   -8.331;  778.621
329.803;   54.331;   -5.121;  737.841
330.400;   57.002;   -4.510;  704.260
330.997;   58.828;   -6.441;  817.147
331.594;   56.125;   -8.831;  788.185
332.191;   61.825;   -7.621;  728.722
332.787;   65.810;   -4.591;  844.463
333.384;   65.509;   -7.412;  763.093
333.981;   64.332;   -8.293;  815.687
334.578;   67.674;   -7.052;  708.378
335.174;   69.190;   -3.102;  731.469
335.771;   67.921;   -5.943;  836.456
336.367;   66.383;   -7.393;  710.631
336.964;   71.504;   -4.063;  793.266
337.561;   67.980;   -3.813;  731.112
338.157;   63.971;   -4.654;  911.916
338.754;   63.074;   -7.934;  796.589
339.350;   61.109;   -4.414;  722.493
339.946;   62.924;   -4.664;  773.135
340.543;   55.344;   -6.375;  846.136
341.139;   48.091;   -9.815;  720.836
341.735;   45.449;   -4.526;  772.593
342.332;   44.304;   -4.895;  691.472
342.928;   45.624;   -4.295;  795.394
343.524;   37.941;   -5.476;  761.684
344.120;   34.395;   -5.856;  738.562
344.716;   37.485;   -2.155;  723.717
345.313;   35.506;   -6.275;  795.342
345.909;   30.072;   -8.815;  627.336
346.505;   30.719;   -5.305;  740.247
347.101;   30.879;   -2.674;  827.864
347.697;   32.141;   -4.344;  785.398
348.293;   26.907;   -9.975;  627.244
348.889;   27.259;   -5.774;  745.914
349.485;   26.286;   -5.004;  688.205
350.081;   27.879;   -4.704;  772.592
350.676;   21.997;   -6.635;  691.606
351.272;   26.978;   -4.504;  809.530
351.868;   26.377;   -3.914;  780.497
352.464;   23.939;   -9.044;  723.932
353.059;   20.660;   -8.314;  646.017
353.655;   23.329;   -7.024;  777.063
354.251;   24.305;   -5.343;  759.845
354.846;   18.770;   -8.604;  740.646
355.442;   16.645;   -6.945;  753.071
356.038;   17.697;   -7.564;  751.708
356.633;   18.080;   -5.814;  728.594
357.229;   16.905;   -7.364;  724.757
357.824;   14.511;   -8.024;  703.600
358.420;   13.701;   -9.384;  679.726
359.015;   12.774;   -5.104;  695.357
359.610;   14.864;   -6.854;  763.920
360.206;    8.781;  -10.185;  603.240
360.801;   11.387;   -7.054;  646.503
361.396;   13.093;   -5.034;  725.975
361.992;    9.088;   -8.284;  668.220
362.587;    6.321;   -8.625;  670.160
363.182;    8.530;   -7.674;  689.631
363.777;    8.796;   -5.164;  738.242
364.372;    9.371;   -8.604;  737.314
364.967;    4.639;   -9.055;  680.744
365.563;    9.168;   -6.114;  815.567
366.158;    5.570;   -5.814;  685.161
366.753;    6.503;   -7.854;  649.263
367.348;    5.219;   -7.804;  746.056
367.942;    4.022;   -7.954;  697.298
368.537;    3.790;   -4.984;  754.245
369.132;    4.050;   -8.564;  703.428
369.727;    0.074;   -8.855;  638.079
370.322;    0.975;   -6.245;  580.186
370.917;    1.243;   -6.425;  710.646
371.511;    3.897;   -6.294;  861.834
372.106;   -0.277;   -7.685;  776.964
372.701;   -3.189;   -7.335;  585.988
373.296;    1.654;   -4.564;  863.135
373.890;   -3.275;  -10.235;  647.840
374.485;   -4.612;   -7.885;  691.199
375.079;   -1.155;   -7.324;  738.685
375.674;   -0.169;   -3.494;  812.970
376.268;   -3.881;   -8.525;  691.759
376.863;   -9.216;  -10.086;  580.327
377.457;   -3.220;   -7.025;  662.490
378.052;   -5.074;   -3.585;  764.884
378.646;   -6.053;   -7.595;  741.167
379.240;   -6.654;   -8.335;  721.176
379.835;   -5.529;   -5.785;  636.978
380.429;   -7.733;   -4.335;  562.557
381.023;   -7.631;   -6.805;  779.205
381.617;  -10.665;   -9.195;  680.106
382.212;   -6.531;   -6.905;  685.303
382.806;   -6.570;   -3.745;  760.690
383.400;   -9.718;   -7.745;  672.281
383.994;  -11.885;   -9.765;  664.870
384.588;   -7.976;   -6.564;  697.701
385.182;   -6.924;   -5.344;  726.624
385.776;   -7.801;   -8.514;  706.875
386.370;  -11.151;   -9.555;  681.968
386.964;   -9.474;   -8.715;  684.155
387.558;   -8.501;   -6.174;  598.360
388.152;  -11.599;   -8.725;  681.959
388.745;   -9.485;   -7.965;  814.707
389.339;   -8.886;   -5.924;  747.642
389.933;   -7.369;   -5.524;  695.370
390.527;   -9.031;   -7.114;  859.029
391.120;  -14.288;  -10.725;  595.318
391.714;  -12.205;   -8.035;  711.633
392.308;   -7.914;   -3.574;  780.253
392.901;  -12.984;   -7.245;  642.460
393.495;  -13.843;   -9.285;  595.414
394.089;  -11.863;   -5.895;  760.452
394.682;  -13.439;   -4.295;  697.188
395.275;  -13.426;   -9.875;  719.927
395.869;  -14.110;   -8.485;  667.314
396.462;  -13.610;   -7.455;  616.609
397.056;   -9.008;   -5.424;  776.621
397.649;  -13.734;   -6.605;  731.575
398.242;  -11.465;   -8.224;  712.645
398.836;  -10.601;   -7.474;  766.408
399.429;  -11.801;   -7.094;  631.041
400.022;  -15.254;   -9.475;  665.902
400.615;  -12.660;   -7.145;  805.609
401.208;  -10.923;   -7.174;  691.451
401.802;  -13.450;   -5.515;  699.329
402.395;  -14.244;   -9.875;  683.502
402.988;  -15.293;   -8.845;  696.627
403.581;  -12.467;   -8.874;  646.878
404.174;   -9.978;   -5.324;  686.568
404.767;  -12.693;   -9.575;  638.583
405.360;  -15.281;  -10.965;  621.445
405.953;  -10.091;   -8.764;  759.034
406.545;  -10.029;   -7.514;  725.342
407.138;  -13.364;  -10.025;  618.350
407.731;  -12.517;  -10.034;  613.303
408.324;   -8.386;   -9.374;  660.554
408.917;   -9.563;   -6.534;  681.864
409.509;  -11.348;   -8.004;  740.396
410.102;  -13.055;   -9.875;  643.948
410.695;   -6.614;   -8.604;  665.758
411.287;   -7.874;   -6.794;  599.821
411.880;   -9.451;   -9.334;  585.421
412.472;  -12.277;  -10.254;  613.092
413.065;  -10.340;   -6.714;  629.408
413.657;   -7.200;   -7.234;  576.678
414.250;   -7.194;  -10.544;  646.681
414.842;   -8.910;   -9.744;  676.353
415.434;   -7.173;   -6.994;  570.463
416.027;   -2.879;   -5.893;  652.196
416.619;   -5.145;   -7.264;  713.400
417.211;   -4.960;  -10.374;  599.352
417.804;   -2.437;   -7.993;  628.499
418.396;   -5.838;   -7.234;  607.643
418.988;   -3.955;   -9.443;  659.238
419.580;   -7.159;  -10.724;  568.276
420.172;   -5.301;  -10.323;  536.196
420.764;   -0.918;   -8.793;  672.482
421.356;   -1.154;  -11.143;  636.898
421.948;   -2.791;   -8.293;  677.661
422.540;    2.051;   -7.893;  680.027
423.132;    1.470;   -7.082;  600.641
423.724;   -1.580;   -8.653;  561.267
424.316;    0.202;  -10.213;  621.345
424.908;    4.192;   -9.762;  591.517
425.500;    4.348;   -5.572;  647.978
426.092;    4.900;   -8.422;  648.268
426.683;    3.304;   -9.283;  684.836
427.275;    6.437;   -7.852;  641.471
427.867;    7.948;   -5.272;  668.948
428.458;    8.118;   -7.682;  732.344
429.050;    6.984;  -10.612;  680.749
429.642;    9.139;   -9.882;  743.124
430.233;    9.715;   -6.962;  569.356
430.825;   11.348;   -6.842;  724.809
431.416;    8.804;   -9.672;  698.241
432.008;   11.753;   -6.552;  651.723
432.599;   12.842;   -6.891;  656.073
433.190;    9.501;  -10.912;  637.670
433.782;    9.087;  -11.172;  590.395
434.373;   15.905;   -6.061;  884.765
434.964;   14.543;   -8.251;  602.920
435.556;   12.785;   -9.722;  634.537
436.147;   15.788;   -9.082;  758.490
436.738;   15.195;   -8.041;  701.099
437.329;   20.861;   -7.341;  721.723
437.920;   13.600;   -8.162;  666.688
438.511;   13.832;  -11.802;  564.526
439.103;   20.327;  -10.191;  623.998
439.694;   21.656;   -7.601;  681.583
440.285;   22.911;   -8.541;  764.432
440.876;   20.440;   -9.751;  845.738
441.466;   19.873;   -9.401;  575.162
442.057;   25.719;   -7.760;  665.814
442.648;   23.784;   -9.971;  746.255
443.239;   22.478;  -11.001;  620.477
443.830;   27.266;   -7.990;  704.958
444.421;   29.981;   -7.910;  655.474
445.011;   26.005;   -8.131;  693.619
445.602;   25.509;   -7.111;  743.126
446.193;   27.414;  -10.920;  488.117
446.783;   31.647;   -6.500;  640.397
447.374;   27.198;   -8.671;  692.759
447.964;   27.688;  -10.781;  713.770
448.555;   36.036;   -9.650;  822.742
449.145;   32.980;   -8.660;  662.853
449.736;   33.604;   -8.990;  803.179
450.326;   33.571;   -9.500;  713.626
450.917;   38.843;   -8.680;  675.324
451.507;   37.936;   -7.520;  600.661
452.097;   39.117;   -8.590;  746.267
452.688;   39.691;  -11.340;  742.160
453.278;   39.274;  -10.100;  566.840
453.868;   43.480;   -6.019;  793.550
454.458;   41.793;   -9.440;  651.141
455.048;   42.198;  -10.560;  711.783
455.639;   43.300;  -11.799;  567.096
456.229;   46.837;   -6.899;  710.694
456.819;   48.565;   -7.389;  751.158
457.409;   49.301;  -11.119;  773.993
457.999;   52.088;   -9.289;  737.505
458.589;   51.851;   -6.139;  686.606
459.179;   51.723;   -8.729;  717.658
459.769;   49.790;   -9.789;  627.099
460.358;   54.709;  -10.259;  797.262
460.948;   55.030;   -7.299;  689.503
461.538;   56.130;  -10.289;  660.677
462.128;   54.062;  -11.269;  664.934
462.717;   60.680;   -9.368;  710.326
463.307;   63.580;   -7.908;  705.846
463.897;   59.305;   -9.599;  656.942
464.486;   58.906;   -9.769;  837.128
465.076;   63.926;   -8.048;  733.776
465.666;   66.616;   -9.358;  652.900
466.255;   64.537;   -7.919;  785.651
466.845;   62.825;  -11.689;  666.749
467.434;   66.872;   -7.818;  725.873
468.023;   67.714;   -7.678;  658.357
468.613;   65.866;  -10.939;  713.946
469.202;   70.168;  -10.118;  646.507
469.791;   74.254;   -9.108;  737.811
470.381;   76.159;   -6.058;  742.813
470.970;   75.107;  -10.428;  711.099
471.559;   75.459;  -10.268;  733.291
472.148;   78.123;   -8.448;  675.737
472.738;   80.445;   -6.917;  765.466
473.327;   80.128;  -11.978;  637.529
473.916;   80.242;  -11.888;  737.446
474.505;   84.663;   -9.437;  751.703
475.094;   86.982;   -6.747;  806.570
475.683;   86.917;   -9.367;  797.699
476.272;   87.835;  -12.637;  730.632
476.861;   90.203;  -10.027;  706.754
477.449;   96.878;   -8.716;  728.487
478.038;   90.837;   -9.577;  692.513
478.627;   92.269;   -9.718;  714.852
479.216;   99.579;   -8.947;  769.441
479.805;  101.598;   -6.256;  783.375
480.393;  101.259;   -7.937; 1008.945
480.982;  101.135;   -7.717;  874.501
481.571;  106.877;   -9.266;  858.333
482.159;  108.342;   -7.636;  705.386
482.748;  107.549;   -9.667;  821.385
483.336;  111.210;  -10.376;  858.209
483.925;  112.728;   -7.147;  774.373
484.513;  119.513;   -7.996;  758.962
485.102;  117.011;  -10.027;  810.965
485.690;  126.087;  -10.446; 1011.050
486.278;  127.443;   -8.446;  979.329
486.867;  128.184;   -6.356;  809.662
487.455;  129.011;   -9.136;  898.229
488.043;  131.283;  -10.646;  748.361
488.631;  140.263;   -7.456; 1005.079
489.220;  144.027;   -6.636;  908.626
489.808;  143.487;  -11.036;  741.415
490.396;  153.144;  -10.246;  914.645
490.984;  158.686;   -8.556;  830.161
491.572;  169.474;   -5.886;  940.315
492.160;  176.327;   -9.486;  919.081
492.748;  189.735;  -10.976;  884.341
493.336;  211.781;   -8.776; 1019.693
493.924;  239.579;   -5.465;  958.077
494.512;  272.060;   -9.986; 1066.638
495.100;  318.958;  -10.636; 1103.280
495.687;  376.854;  -10.885; 1206.373
496.275;  426.477;   -8.126; 1150.796
496.863;  491.980;  -10.586; 1281.171
497.451;  603.406;  -11.926; 1386.805
498.038;  714.395;  -10.885; 1556.729
498.626;  809.491;   -6.315; 1741.407
499.214;  965.120;   -7.326; 2016.609
499.801; 1186.692;  -11.906; 2220.633
500.389; 1430.999;  -10.466; 2312.494
500.976; 1656.455;   -5.236; 2744.849
501.564; 2072.690;   -8.936; 3148.565
502.151; 2557.613;  -13.176; 3515.999
502.738; 3065.027;  -10.646; 3971.274
503.326; 3449.763;   -9.525; 4403.796
503.913; 3699.313;  -10.856; 5161.749
504.500; 4145.193;  -11.586; 5986.420
505.088; 4523.953;  -10.336; 6381.201
505.675; 4963.972;   -6.355; 6925.547
506.262; 5420.612;   -9.046; 7619.060
506.849; 5906.362;  -10.416; 8733.969
507.436; 6283.441;  -10.305; 9790.121
508.023; 6720.236;   -5.496; 9985.472
508.610; 7661.692;   -7.856;10434.618
509.197; 9071.272;  -10.097;11198.435
509.784;10393.818;  -10.886;12391.194
510.371;11546.036;   -9.315;13603.713
510.958;12312.417;   -9.936;14426.586
511.545;13075.830;   -9.326;15243.775
512.132;13914.891;  -10.075;15945.876
512.719;14106.115;   -7.796;16340.369
513.305;14757.817;  -10.606;18011.766
513.892;16124.404;  -11.486;19754.971
514.479;17980.246;   -9.126;20967.805
515.066;19688.932;   -6.026;22299.793
515.652;20302.057;   -8.466;22908.660
516.239;21221.588;  -10.886;23798.875
516.825;23175.865;  -11.496;25567.275
517.412;25123.828;   -5.796;28154.959
517.998;26856.594;  -10.506;28344.111
518.585;26450.430;  -10.076;27134.219
519.171;25182.564;   -8.315;27268.576
519.758;25741.500;   -8.596;28964.129
520.344;26869.084;   -8.466;30664.494
520.930;29212.670;  -11.006;32550.605
521.516;29524.699;  -10.495;35422.895
522.103;28448.609;   -5.526;38280.004
522.689;28771.295;   -8.746;37835.117
523.275;30504.514;  -11.376;37288.613
523.861;32632.248;  -11.156;37281.395
524.447;36116.484;   -8.135;37846.949
525.033;37401.723;   -7.896;38321.949
525.619;36885.301;  -12.476;38579.285
526.205;36828.945;   -9.516;40622.875
526.791;36409.527;   -6.926;42258.836
527.377;37753.715;   -8.346;42966.902
527.963;39468.559;   -8.717;42018.949
528.549;38476.492;  -11.016;42476.828
529.135;38851.207;   -8.536;41854.852
529.721;38195.445;   -9.666;41237.711
530.306;36466.906;  -10.066;41259.445
530.892;36917.305;  -11.356;41506.047
531.478;36138.246;   -6.596;43559.613
532.063;36376.313;   -8.836;47695.563
532.649;39887.090;  -10.047;50808.324
533.235;41677.988;   -9.746;51787.500
533.820;40787.297;   -6.566;52145.035
534.406;40085.938;  -10.817;51133.488
534.991;43149.934;   -9.416;49996.805
535.576;44549.254;   -9.036;48882.852
536.162;44946.605;   -6.156;46942.285
536.747;45747.965;  -11.607;45711.746
537.333;46107.480;  -11.787;48510.180
537.918;45532.289;  -12.437;50439.891
538.503;46360.617;   -7.196;50863.711
539.088;45090.977;  -10.556;50906.922
539.673;43689.328;   -8.767;52621.965
540.259;44538.469;  -10.026;52368.094
540.844;46428.246;   -7.416;50879.109
541.429;44895.039;   -9.467;52077.777
542.014;44692.723;   -9.527;52716.695
542.599;47126.453;   -9.946;52363.281
543.184;50066.223;   -7.927;53187.137
543.769;48667.574;   -9.297;54697.605
544.354;44779.371;  -10.127;53913.914
544.938;42565.031;   -9.267;49680.164
545.523;44912.938;   -6.506;47386.277
546.108;49066.652;   -9.787;49151.949
546.693;48994.090;  -11.587;51384.637
547.278;48888.141;  -10.986;51853.254
547.862;45552.594;   -8.206;51173.750
548.447;43162.496;  -10.067;51691.395
549.031;44190.250;   -9.637;52456.703
549.616;45474.676;   -9.926;52714.516
550.201;44321.715;   -6.347;52414.598
550.785;42869.590;   -7.917;52355.059
551.370;43321.668;  -10.867;54589.453
551.954;44656.750;   -9.047;58267.348
552.538;46379.395;   -7.827;59062.176
553.123;45832.145;  -10.287;58115.285
553.707;41393.699;  -12.178;56556.285
554.291;42423.809;   -8.717;56201.668
554.876;45829.082;   -7.457;55335.762
555.460;46743.648;  -10.387;54155.703
556.044;47072.727;   -9.618;53721.484
556.628;46441.414;  -11.567;53731.016
557.212;44444.156;   -8.097;54312.531
557.796;45360.242;  -11.077;53797.773
558.380;43771.871;  -11.108;56145.984
558.964;42707.742;   -9.057;57277.930
559.548;43022.734;   -6.977;56459.641
560.132;42276.852;  -11.457;54434.543
560.716;40428.344;  -11.378;54800.617
561.300;41178.293;   -9.577;57606.945
561.884;43665.035;   -7.127;58972.445
562.467;44678.953;   -7.118;57327.570
563.051;44661.773;  -13.358;54962.434
563.635;42378.477;  -10.178;52594.473
564.219;41706.359;   -7.837;50610.410
564.802;41038.305;  -11.398;49551.180
565.386;41831.500;  -12.788;48370.953
565.969;42611.941;   -9.077;48178.871
566.553;42675.570;   -6.207;49957.305
567.136;40568.906;   -8.568;50369.594
567.720;39629.156;  -11.868;49492.004
568.303;39670.191;   -8.268;50616.352
568.887;38263.402;   -8.698;50727.148
569.470;38104.879;   -6.808;51698.379
570.053;36457.262;  -13.188;52122.078
570.637;34887.426;  -12.037;52536.438
571.220;34359.773;   -8.577;51186.098
571.803;34955.980;   -8.498;51032.762
572.386;36694.590;  -10.498;49609.887
572.969;37315.887;   -9.388;48285.926
573.552;33351.703;   -8.338;47624.285
574.135;31872.494;   -8.518;45498.641
574.718;29917.613;  -13.628;41970.434
575.301;29991.342;  -10.893;41447.137
575.884;30065.070;   -8.158;40923.836
576.467;35029.277;  -10.328;45267.723
577.050;33743.973;  -13.058;48175.543
577.633;32397.645;   -9.458;47729.328
578.216;33224.066;   -8.928;47579.793
578.799;34291.367;   -9.358;47820.996
579.381;34020.004;  -11.388;48115.551
579.964;31687.797;  -11.718;47333.766
580.547;31836.928;   -8.588;46668.969
581.129;33192.590;   -8.859;44466.141
581.712;33120.039;  -10.729;44164.922
582.294;34438.121;  -11.118;46477.855
582.877;32657.502;   -5.218;48244.254
583.459;32828.875;   -8.679;47437.895
584.042;34947.723;  -10.709;46943.219
584.624;37163.957;  -11.669;46792.227
585.206;35914.727;   -8.218;46557.250
585.789;34127.004;  -10.569;45793.773
586.371;34314.863;  -11.859;43836.391
586.953;32917.906;  -10.719;42972.492
587.536;34642.230;   -7.198;42487.211
588.118;36056.883;   -8.720;42086.414
588.700;35224.926;  -10.439;43389.930
589.282;34628.906;   -9.198;43646.039
589.864;33397.488;   -9.199;43438.109
590.446;31586.102;  -11.319;43151.926
591.028;31267.879;  -11.159;42781.867
591.610;31092.760;  -11.779;42839.098
592.192;27824.830;   -7.668;42820.402
592.774;27759.820;  -11.949;40724.277
593.356;27762.371;  -12.129;39874.789
593.937;25023.477;  -10.669;39980.648
594.519;25293.502;   -6.509;42069.633
595.101;28069.902;  -10.849;42976.031
595.683;29240.756;  -11.679;44084.441
596.264;29813.945;   -9.049;43478.797
596.846;32203.068;   -8.849;43803.672
597.427;32555.629;   -9.570;42986.934
598.009;33450.527;  -12.620;42832.219
598.591;33139.113;  -10.039;42580.086
599.172;32308.947;  -10.369;43061.805
599.753;30686.949;   -9.140;41691.469
600.335;30544.363;  -11.430;40692.520
600.916;31041.334;   -9.939;39982.422
601.498;29923.896;   -8.479;40318.617
602.079;28559.844;  -10.920;40670.609
602.660;30674.354;  -11.480;41450.898
603.241;32080.916;  -11.699;41137.738
603.823;31900.252;   -9.579;38868.797
604.404;31521.609;  -10.620;38182.785
604.985;30630.391;  -10.450;38078.047
605.566;29973.299;   -9.129;38056.633
606.147;29672.682;   -7.510;37020.418
606.728;30831.764;  -10.660;37883.359
607.309;31737.887;  -11.740;38748.273
607.890;31443.531;   -9.759;38850.230
608.471;30361.049;   -8.250;37457.918
609.051;31272.107;   -9.240;36066.457
609.632;29416.633;  -12.120;35991.074
610.213;27633.529;   -9.110;37402.641
610.794;29004.771;   -8.030;38383.363
611.374;31871.525;   -8.110;40562.387
611.955;32106.410;  -13.560;38533.727
612.536;29454.281;  -11.400;36951.789
613.116;28196.924;   -8.070;37197.891
613.697;30023.232;  -10.830;38411.125
614.277;30998.891;  -11.641;38673.938
614.858;30371.145;  -13.310;37075.863
615.438;29328.805;   -7.460;35092.906
616.019;27979.555;   -7.601;33666.301
616.599;28458.152;  -12.020;34189.023
617.179;29947.287;  -11.780;36952.047
617.760;32362.303;   -8.570;39582.574
618.340;32896.844;  -11.471;38943.977
618.920;31422.371;  -11.170;37594.156
619.500;33009.336;  -11.071;37866.938
620.080;33354.414;   -7.750;37869.043
620.660;31806.811;  -12.711;36868.617
621.241;30184.400;  -10.211;36352.309
621.821;28849.275;  -10.961;35459.520
622.401;28343.004;   -7.720;35207.414
622.980;29845.660;   -8.981;35980.422
623.560;29870.646;   -9.331;37351.328
624.140;28483.451;   -9.850;34388.582
624.720;26294.299;   -7.451;32368.764
625.300;24693.904;   -9.070;32638.629
625.880;27924.875;  -12.601;34599.035
626.459;29869.957;  -11.751;36831.738
627.039;31197.545;   -9.281;38299.098
627.619;33024.910;   -8.801;38289.574
628.198;31771.221;  -12.071;37220.695
628.778;30496.238;   -9.461;37632.563
629.357;31406.125;   -8.491;38003.012
629.937;31643.527;   -9.721;38402.039
630.516;32124.998;   -9.951;37868.801
631.096;32337.926;  -11.731;35760.410
631.675;33554.480;   -8.572;35225.219
632.254;33323.832;  -11.282;35130.289
632.834;32558.020;  -13.322;35794.570
633.413;32191.598;  -10.301;35788.922
633.992;31392.262;   -8.582;34532.863
634.571;32643.684;   -8.352;33590.113
635.151;32637.828;  -11.912;34943.863
635.730;32129.393;  -10.511;35352.523
636.309;33963.082;   -7.731;35366.605
636.888;31839.490;   -9.952;36165.637
637.467;30699.854;  -11.672;37515.902
638.046;30978.402;   -8.901;39288.695
638.625;32151.398;   -7.912;38279.699
639.204;32340.621;  -10.022;37741.598
639.782;30560.453;  -12.252;38364.551
640.361;28579.326;  -10.041;36740.621
640.940;27403.844;  -11.161;34950.082
641.519;28495.570;   -9.701;34137.398
642.097;30521.365;  -11.271;35654.258
642.676;32239.037;   -8.651;35637.957
643.255;33678.570;   -8.711;36567.074
643.833;31153.592;   -9.581;37809.434
644.412;28523.580;  -13.711;37337.293
644.990;30232.186;  -11.811;37018.531
645.569;32934.176;   -9.411;36518.469
646.147;32230.881;  -10.291;36186.430
646.726;31001.553;  -12.401;36267.688
647.304;30788.574;  -10.411;36647.625
647.882;30113.713;   -9.651;39286.742
648.461;31787.938;   -9.631;39157.703
649.039;35103.723;  -11.881;35412.883
649.617;34812.117;   -9.661;34744.918
650.195;32516.363;   -9.301;35403.098
650.773;31555.443;  -10.511;35053.797
651.352;31001.596;  -11.521;33756.816
651.930;28747.994;  -12.211;31868.773
652.508;25552.994;   -9.171;33121.551
653.086;26156.848;   -9.371;33564.793
653.663;31669.996;  -13.161;34054.668
654.241;34933.813;  -13.031;35693.309
654.819;35801.973;   -9.371;36422.906
655.397;35917.527;  -10.511;38213.484
655.975;32835.121;  -10.371;39507.625
656.553;30017.609;  -10.051;39498.223
657.130;28811.379;  -10.061;40395.480
657.708;27146.367;   -9.561;39242.020
658.286;24265.285;  -11.511;38920.020
658.863;26362.688;  -10.261;40202.898
659.441;30384.080;   -7.531;39677.938
660.018;32172.270;   -9.501;40413.355
660.596;31403.891;  -13.301;39931.414
661.173;30983.182;  -11.211;39604.531
661.750;32288.756;   -9.951;39700.070
662.328;31588.973;   -9.390;39292.809
662.905;30596.881;  -11.330;38235.648
663.482;28065.805;   -9.050;36212.305
664.060;25227.973;   -8.240;35944.945
664.637;26001.408;  -10.050;35170.785
665.214;29312.170;  -11.760;34197.523
665.791;30206.061;  -10.530;34549.520
666.368;28900.051;   -9.690;35118.578
666.945;29769.207;   -9.320;36019.418
667.522;30116.111;  -11.860;36048.438
668.099;31409.148;  -10.770;36243.914
668.676;31612.732;   -6.260;35958.875
669.253;33927.328;   -7.000;37384.730
669.830;35276.625;  -10.190;36779.629
670.407;32361.705;   -9.550;35231.289
670.984;33213.574;   -9.260;35544.270
671.560;30381.766;   -9.280;35466.867
672.137;25919.844;  -11.810;34280.863
672.714;28049.830;  -11.490;34632.863
673.290;31645.459;   -7.740;35135.422
673.867;31007.330;  -10.660;36114.480
674.443;30942.447;  -12.230;36152.859
675.020;30820.408;  -10.450;35327.238
675.596;30075.131;   -9.260;35795.176
676.173;29327.279;  -10.780;35430.355
676.749;29155.451;  -13.690;33549.516
677.326;29037.039;  -11.980;32210.012
677.902;28526.084;   -8.630;32068.871
678.478;29811.982;  -10.730;32583.891
679.054;30285.768;  -10.520;32088.928
679.631;29768.590;  -11.920;30978.848
680.207;29655.109;   -7.490;33160.887
680.783;31413.570;   -9.860;35570.363
681.359;32888.410;  -13.380;36125.184
681.935;33755.258;  -12.480;35240.922
682.511;32872.723;   -7.900;34429.961
683.087;31612.688;   -7.710;34463.680
683.663;31063.289;  -11.480;34648.898
684.239;29491.059;  -14.090;34546.457
684.815;28422.814;   -7.560;35586.375
685.390;29024.207;   -9.910;35821.895
685.966;30683.027;  -11.159;35085.871
686.542;32211.518;  -11.169;34198.230
687.118;33663.719;   -5.959;32847.707
687.693;32763.055;  -10.329;32794.027
688.269;33372.621;  -12.059;33072.367
688.844;33256.438;  -10.909;33141.664
689.420;30583.828;   -8.019;33965.742
689.995;29583.754;   -8.399;34655.523
690.571;31168.287;  -10.949;33576.742
691.146;30553.684;   -9.619;32657.219
691.722;28608.166;   -8.999;32526.979
692.297;27780.512;  -11.589;33014.617
692.872;27987.100;  -11.739;34012.254
693.448;30798.830;  -11.059;34237.434
694.023;31270.684;  -10.139;34142.672
694.598;29246.992;   -9.029;34132.031
695.173;30299.229;  -13.319;34205.250
695.748;30746.105;  -10.169;32882.488
696.323;28651.904;   -8.339;32864.906
696.898;27323.146;   -8.169;33170.004
697.473;28073.188;  -12.309;32432.984
698.048;28042.643;  -10.989;31649.303
698.623;26888.227;   -9.329;30778.141
699.198;27748.848;   -9.849;31140.119
699.773;28679.518;  -12.329;31764.299
700.348;29990.656;  -10.389;31780.816
700.922;30163.299;   -9.269;32046.375
701.497;30981.424;   -9.329;32603.574
702.072;32313.121;  -10.789;34799.871
702.646;31356.289;  -10.839;35793.172
703.221;30627.238;   -9.099;35201.590
703.795;32545.957;  -10.939;34764.527
704.370;30249.830;  -12.859;34307.367
704.944;28710.354;  -11.559;33509.887
705.519;29489.008;   -7.939;31388.584
706.093;31157.734;  -10.499;31340.104
706.668;32946.477;  -11.289;32630.281
707.242;32173.820;  -11.509;32728.779
707.816;30424.793;   -9.639;32947.238
708.390;29503.086;  -11.429;33277.855
708.965;29098.014;  -11.869;33834.336
709.539;30707.992;  -11.689;33709.273
710.113;31194.463;  -10.478;33044.313
710.687;30265.533;  -10.228;31953.992
711.261;29523.389;  -13.698;30505.949
711.835;29915.645;  -13.378;30262.369
712.409;28737.736;   -9.698;31254.447
712.983;27904.746;  -11.898;32754.986
713.557;30166.229;  -15.138;34018.824
714.131;28610.561;  -14.098;34579.625
714.704;28192.361;   -9.958;33890.262
715.278;30492.928;  -10.028;33531.102
715.852;29201.322;  -11.148;33601.660
716.425;28235.998;   -9.068;33515.117
716.999;27038.172;  -10.038;33185.555
717.573;26870.834;   -9.798;33905.996
718.146;26168.127;  -12.378;35199.293
718.720;25984.572;  -11.918;35060.551
719.293;26247.455;   -8.088;34973.230
719.867;28674.545;  -10.888;36394.449
720.440;30972.365;  -11.938;36663.008
721.013;31913.572;  -12.818;35102.426
721.587;29992.416;  -10.298;33985.266
722.160;28096.773;  -10.048;33524.965
722.733;27044.865;  -12.108;32987.043
723.306;27075.777;  -10.818;33066.301
723.880;28852.988;   -8.908;33399.500
724.453;28297.666;   -9.878;33468.297
725.026;28685.982;  -11.188;33816.637
725.599;31179.703;  -11.678;32797.996
726.172;30359.824;   -9.618;33187.434
726.745;27718.904;   -8.258;35136.613
727.318;27010.031;  -12.978;35751.730
727.891;27012.191;  -12.148;35890.430
728.463;26910.127;   -8.968;34822.090
729.036;26747.525;  -10.188;32895.086
729.609;26332.129;  -11.788;31823.225
730.182;24045.867;  -11.788;31445.283
730.754;22722.998;  -10.268;32373.223
731.327;22994.014;   -9.998;33676.820
731.900;24066.436;  -12.228;33417.000
732.472;24015.391;  -13.848;31978.498
733.045;23154.699;   -8.698;30368.777
733.617;22475.121;  -10.607;30574.215
734.190;24468.809;  -11.507;31280.975
734.762;25578.967;  -13.647;31674.412
735.334;26878.369;   -9.767;31247.291
735.907;27166.738;   -9.897;29876.211
736.479;26457.543;  -11.637;29808.488
737.051;27342.889;   -9.567;30233.547
737.623;26891.480;   -8.187;31469.086
738.195;25810.143;  -11.187;31784.225
738.768;24736.662;  -12.337;32120.523
739.340;23112.967;  -12.227;32094.342
739.912;22301.383;  -11.057;31312.680
740.484;22455.086;  -10.207;31946.238
741.056;22192.146;  -10.047;32984.059
741.628;23099.412;  -13.627;33897.715
742.199;23887.186;   -7.177;33213.016
742.771;25848.066;  -10.797;31369.113
743.343;26788.715;  -11.997;31865.473
743.915;26503.875;  -12.867;32388.631
744.487;24083.270;   -7.617;31079.568
745.058;21412.242;   -9.557;30570.107
745.630;22422.652;   -9.877;29970.127
746.201;23901.547;  -14.177;29186.766
746.773;24497.775;   -9.237;28805.723
747.344;22969.855;   -9.847;29591.223
747.916;21255.795;  -11.657;31412.201
748.487;22145.199;  -10.587;32194.898
749.059;23658.686;   -8.707;32533.719
749.630;23843.992;  -10.537;32158.518
750.201;23179.482;  -11.687;30855.395
750.773;21859.383;  -11.647;28622.555
751.344;21602.295;   -7.147;28405.732
751.915;23694.705;   -9.757;28461.551
752.486;24925.104;  -12.427;27842.850
753.057;24060.281;  -12.227;27845.008
753.628;23812.875;  -10.417;27728.107
754.199;23101.389;  -11.767;27381.086
754.770;23033.150;  -11.187;25882.203
755.341;22392.529;  -10.507;25886.184
755.912;20810.422;   -9.387;26050.861
756.483;19241.715;  -10.647;26798.779
757.054;19542.686;  -11.837;27048.238
757.625;19741.547;  -12.716;26294.838
758.195;19712.957;   -9.666;26142.076
758.766;19919.309;   -8.656;26392.234
759.337;19315.760;  -12.856;26334.594
759.907;19039.684;  -13.366;27579.652
760.478;18924.137;   -8.576;28352.770
761.048;19894.619;  -10.526;27325.088
761.619;20015.023;  -11.116;26460.428
762.189;18694.447;  -12.136;26029.826
762.760;18313.916;   -9.456;26430.145
763.330;18816.598;   -7.136;26670.902
763.900;19192.723;  -11.786;26603.021
764.471;18579.143;  -11.546;25542.740
765.041;17570.299;   -8.096;24358.459
765.611;16906.121;   -8.876;23991.297
766.181;16941.230;  -12.196;24470.236
766.751;16578.182;  -11.636;24845.975
767.321;17443.211;  -10.156;24533.633
767.891;16873.674;  -11.766;24916.492
768.461;16969.730;  -14.936;24776.771
769.031;17919.771;  -12.356;24757.988
769.601;18435.992;   -7.526;24181.088
770.171;18150.480;  -10.766;23670.387
770.741;17387.508;  -13.176;22960.045
771.311;17079.695;  -10.616;22917.523
771.880;17481.674;   -9.576;23562.941
772.450;17319.293;  -10.336;24216.500
773.020;16904.021;  -13.516;24140.398
773.589;17303.314;  -13.466;24414.857
774.159;17102.141;   -8.686;23858.717
774.729;16078.024;   -9.476;22942.135
775.298;14444.072;  -13.666;22324.033
775.867;13922.144;  -11.716;21140.313
776.437;14105.186;   -9.906;20838.092
777.006;13503.063;  -12.166;20599.510
777.576;12851.246;  -12.356;20508.809
778.145;12799.455;  -11.646;20732.947
778.714;13222.798;   -8.226;21062.465
779.283;14114.560;   -9.556;20949.664
779.853;14717.999;  -14.116;20508.623
780.422;14086.767;  -11.506;20649.082
780.991;13525.760;   -9.556;21527.520
781.560;13244.224;   -9.095;22632.658
782.129;13243.998;  -12.135;23048.277
782.698;13212.866;  -10.865;23438.555
783.267;12722.438;   -9.335;23267.734
783.836;12789.886;  -11.045;22415.133
784.404;13528.448;  -13.865;20443.152
784.973;12913.133;  -13.095;19699.150
785.542;11662.809;  -11.575;19763.828
786.111;11091.616;   -9.705;20341.408
786.679;11805.693;  -12.105;20207.967
787.248;12002.005;  -12.455;19516.465
787.817;11481.856;  -11.535;18900.363
788.385;11568.444;   -9.765;17879.121
788.954;11889.941;  -14.005;17658.301
789.522;11417.884;  -11.955;17788.879
790.090;11618.844;  -10.135;18118.277
790.659;12470.878;  -10.975;18338.736
791.227;12279.468;  -13.375;18508.615
791.795;11605.884;  -12.375;17898.254
792.364;11202.599;  -10.725;17295.133
792.932;11372.354;   -9.715;16822.051
793.500;11599.090;  -12.675;17040.148
794.068;11401.664;  -13.495;17179.787
794.636;10182.140;  -10.885;16664.246
795.204; 9126.872;  -11.045;16524.545
795.772; 9871.288;  -13.175;17274.564
796.340;11027.685;  -12.445;17891.002
796.908;10764.979;   -9.735;17648.561
797.476;11091.861;   -9.815;17064.080
798.044;11827.175;  -13.985;16672.777
798.612;11599.157;  -13.115;17023.996
799.180;10372.075;  -10.185;16561.615
799.747; 9371.778;   -9.055;15962.773
800.315; 8683.227;  -12.385;15296.992
800.883; 8912.058;  -15.035;14801.771
801.450; 9282.959;  -10.365;14534.430
802.018; 9487.190;   -9.855;14173.248
802.585; 9568.487;  -11.905;14029.547
803.153; 9116.394;  -11.585;13836.846
803.720; 8460.748;   -9.095;13567.324
804.287; 8503.673;   -9.135;13360.622
804.855; 8875.455;  -11.604;13681.981
805.422; 9070.168;  -11.794;13536.560
805.989; 8955.635;  -10.734;13355.958
806.556; 8502.681;  -10.444;13747.896
807.124; 8397.394;  -12.764;13987.376
807.691; 8961.935;  -12.964;14038.674
808.258; 9240.641;  -11.134;14120.152
808.825; 9369.631;   -9.854;13860.111
809.392; 9035.093;  -10.504;13268.790
809.959; 8628.854;  -13.054;12680.389
810.526; 8516.040;   -8.294;12427.308
811.093; 8213.503;   -8.394;12030.105
811.659; 7513.267;  -12.304;11653.664
812.226; 7335.645;  -13.944;11637.183
812.793; 7856.131;  -10.484;11611.521
813.360; 7922.135;  -10.144;11885.181
813.926; 7249.981;  -11.684;12770.539
814.493; 6678.630;  -13.644;12677.638
815.060; 6524.043;   -9.724;11974.336
815.626; 6814.153;   -9.854;11594.715
816.193; 6838.125;  -13.254;11579.474
816.759; 6794.184;  -13.204;11666.972
817.325; 6588.819;   -9.434;11325.530
817.892; 6269.637;  -10.134;11105.369
818.458; 6171.771;  -13.474;10843.928
819.024; 6118.904;  -11.854;10714.406
819.591; 6409.254;  -10.244;10469.165
820.157; 6590.281;  -10.704;10235.523
820.723; 6923.192;  -12.324;10847.563
821.289; 7341.602;   -9.444;11040.980
821.855; 7353.131;   -8.374;10357.100
822.421; 6885.469;  -10.234; 9978.918
822.987; 6632.430;  -13.294; 9754.177
823.553; 6506.199;  -10.884;10065.755
824.119; 6105.461;   -8.884;10036.294
824.685; 5949.233;   -6.784;10029.192
825.251; 5893.358;  -12.004;10199.230
825.816; 6028.356;  -11.474; 9820.189
826.382; 5799.119;   -9.174; 9297.248
826.948; 5483.028;   -9.214; 9381.347
827.513; 5246.806;  -10.774; 9450.726
828.079; 5222.375;  -11.924; 9472.444
828.645; 5276.896;  -10.543; 9292.643
829.210; 5421.327;  -10.533; 9065.341
829.776; 5432.688;  -10.753; 9132.620
830.341; 5385.588;  -10.173; 9092.878
830.906; 5510.071;  -10.743; 9078.557
831.472; 5374.556;  -11.113; 8534.535
832.037; 4870.093;  -10.603; 8677.874
832.602; 4818.488;  -13.323; 8628.692
833.167; 5228.337;  -10.823; 8879.031
833.733; 5179.192;  -10.113; 9189.790
834.298; 4877.546;  -13.583; 9052.608
834.863; 4734.554;  -12.703; 8895.087
835.428; 4611.874;  -10.523; 8824.266
835.993; 4552.834;   -6.963; 8845.385
836.558; 4630.699;  -10.763; 8888.563
837.123; 4756.248;   -9.903; 8966.582
837.688; 4649.097;   -9.913; 8617.860
838.253; 4526.232;  -10.283; 8590.699
838.817; 4676.188;  -12.963; 8443.797
839.382; 4819.040;  -14.243; 8799.356
839.947; 4660.381;  -10.733; 8810.595
840.511; 4784.943;   -9.383; 8796.394
841.076; 4873.480;  -12.563; 8347.231
841.641; 4680.662;  -12.953; 8224.330
842.205; 4346.496;   -7.043; 8223.349
842.770; 4278.342;   -8.163; 8622.107
843.334; 4335.251;  -12.503; 8410.386
843.898; 4338.603;  -11.693; 8337.465
844.463; 4237.107;  -10.203; 8506.283
845.027; 4138.454;   -9.533; 8280.962
845.591; 4185.333;  -13.443; 8231.141
846.156; 4085.807;  -13.143; 7969.179
846.720; 3846.245;   -9.433; 7768.278
847.284; 3542.245;  -11.033; 7630.957
847.848; 3408.873;  -10.403; 7472.395
848.412; 3428.795;  -11.553; 7437.394
848.976; 3614.775;   -8.393; 7674.592
849.540; 3657.508;   -8.713; 7836.011
850.104; 3639.418;  -12.463; 7913.669
850.668; 3758.077;  -12.973; 7694.508
851.232; 3783.459;  -10.793; 7756.887
851.796; 3671.854;  -10.662; 7926.545
852.359; 3697.053;  -13.082; 7827.844
852.923; 3445.169;  -12.192; 7641.163
853.487; 3344.021;  -11.912; 7342.501
854.050; 3504.233;  -10.892; 7042.820
854.614; 3472.474;  -13.992; 7151.338
855.177; 3334.697;  -11.732; 7105.077
855.741; 3257.327;   -8.962; 6989.675
856.304; 3165.495;   -9.442; 6596.634
856.868; 2933.486;  -14.192; 6356.272
857.431; 2722.573;  -12.702; 6468.571
857.995; 2769.788;   -9.942; 6373.210
858.558; 2816.321;   -9.112; 6324.448
859.121; 2621.755;  -12.932; 6408.327
859.684; 2534.668;  -13.442; 6347.886
860.247; 2948.469;  -10.632; 6321.264
860.810; 3295.800;  -11.272; 6301.903
861.374; 3285.610;   -9.832; 6607.881
861.937; 3228.336;  -11.762; 6408.200
862.500; 3090.845;   -9.722; 6572.639
863.062; 2797.648;  -10.512; 6387.297
863.625; 2695.654;  -11.232; 6190.836
864.188; 2699.616;  -14.112; 5807.254
864.751; 2718.519;  -11.302; 5682.413
865.314; 2852.285;  -10.112; 5547.492
865.876; 2894.077;  -12.182; 5500.150
866.439; 2825.000;  -10.722; 5415.909
867.002; 2691.416;   -9.252; 5501.567
867.564; 2601.302;   -9.572; 5413.946
868.127; 2466.898;  -13.142; 5160.325
868.689; 2179.958;  -12.902; 5133.183
869.252; 2043.417;   -9.732; 5252.382
869.814; 2050.173;   -9.432; 5297.141
870.377; 2157.792;  -11.552; 5390.919
870.939; 2146.263;   -9.052; 5599.898
871.501; 2052.729;  -10.982; 5248.336
872.063; 2056.851;  -12.292; 4854.235
872.626; 2047.050;  -14.912; 4817.074
873.188; 2052.156;  -13.112; 4987.732
873.750; 2005.489;  -13.442; 4868.651
874.312; 2057.969;   -9.402; 4779.330
874.874; 2181.021;  -11.062; 4866.348
875.436; 2054.243;  -13.931; 4718.887
875.998; 1768.380;   -9.561; 4660.005
876.560; 1629.018;  -11.321; 4462.964
877.122; 1628.205;  -12.221; 4145.042
877.683; 1593.075;  -12.191; 4056.481
878.245; 1670.976;  -12.101; 3950.740
878.807; 1827.107;   -8.971; 4058.958
879.369; 1869.015;  -12.071; 3954.677
879.930; 1799.762;  -14.621; 3941.495
880.492; 1632.033;  -10.311; 4067.014
881.053; 1478.502;  -10.901; 3859.633
881.615; 1461.326;  -14.411; 3776.071
882.176; 1492.723;  -13.761; 3734.750
882.738; 1521.474;   -9.181; 3678.489
883.299; 1486.431;  -11.791; 3405.407
883.860; 1397.753;  -13.121; 3351.106
884.422; 1286.605;  -11.211; 3394.044
884.983; 1216.048;  -10.091; 3166.443
885.544; 1192.984;   -8.461; 3189.802
886.105; 1127.238;  -12.361; 3160.360
886.666; 1044.428;  -14.141; 3093.059
887.227; 1013.341;  -11.361; 2941.957
887.788; 1037.398;  -11.401; 2974.836
888.349;  999.334;  -13.791; 2721.214
888.910;  902.187;  -13.191; 2696.493
889.471;  798.474;   -9.881; 2560.172
890.032;  725.656;   -9.881; 2558.190
890.593;  728.247;  -10.371; 2567.669
891.153;  727.416;  -13.301; 2460.307
891.714;  660.701;  -11.431; 2372.046
892.275;  607.453;  -11.291; 2309.505
892.835;  598.138;  -11.471; 2382.543
893.396;  586.558;  -11.541; 2295.502
893.956;  578.977;  -11.181; 2162.420
894.517;  557.730;  -11.741; 2125.439
895.077;  506.533;  -11.671; 2086.978
895.638;  451.512;  -11.311; 2126.316
896.198;  432.580;   -9.831; 1838.275
896.758;  436.216;   -8.421; 1892.813
897.319;  431.035;  -12.351; 1792.232
897.879;  412.531;  -13.511; 1762.751
898.439;  387.592;  -12.001; 1661.149
898.999;  364.846;  -10.180; 1781.468
899.559;  349.829;  -12.030; 1703.347
900.119;  338.929;  -15.710; 1537.525
900.679;  318.600;   -8.900; 1638.384
901.239;  290.732;   -8.340; 1527.902
901.799;  275.769;  -13.910; 1456.441
902.359;  266.526;  -13.460; 1357.140
902.919;  262.098;  -11.490; 1331.118
903.479;  259.707;  -12.110; 1317.257
904.038;  252.101;  -11.720; 1262.595
904.598;  236.500;  -13.610; 1152.034
905.158;  225.477;  -11.040; 1240.893
905.717;  217.525;  -10.900; 1233.691
906.277;  213.878;  -15.080; 1217.330
906.836;  209.995;  -13.380; 1222.408
907.396;  206.659;  -10.780; 1193.047
907.955;  199.703;   -8.500; 1182.526
908.515;  192.313;  -12.760; 1099.364
909.074;  188.807;  -11.900; 1092.863
909.633;  185.820;   -8.950; 1069.121
910.192;  182.960;   -8.770; 1196.460
910.752;  178.395;  -12.390; 1029.960
911.311;  174.198;  -13.680; 1009.780
911.870;  169.567;  -12.370;  971.460
912.429;  165.956;  -10.900; 1094.080
912.988;  164.237;  -11.690; 1081.060
913.547;  160.298;  -13.240;  940.380
914.106;  159.481;  -11.990;  999.420
914.665;  158.595;   -9.990;  984.020
915.224;  157.629;  -12.880; 1035.760
915.782;  156.247;  -12.350;  922.560
916.341;  156.540;   -9.110; 1049.840
916.900;  154.361;   -9.270;  925.260
917.458;  152.351;  -13.240;  884.220
918.017;  149.307;  -13.550;  942.600
918.576;  149.295;  -12.320;  904.440
919.134;  148.917;  -11.490;  837.980
919.693;  146.979;  -13.670;  893.060
920.251;  145.334;  -15.470;  876.500
920.809;  144.365;  -11.290;  839.580
921.368;  144.561;  -10.210;  885.360
921.926;  144.384;  -12.140;  842.940
922.484;  143.762;  -13.080;  903.360
923.042;  142.934;  -11.720;  880.340
923.601;  144.736;   -7.480;  998.680
924.159;  143.524;  -11.570;  935.560
924.717;  143.062;  -13.840;  841.080
925.275;  144.294;  -10.640;  903.240
925.833;  142.738;  -11.540;  779.320
926.391;  143.246;  -12.960;  938.380
926.949;  143.579;  -14.130;  857.680
927.506;  144.424;  -11.750;  903.500
928.064;  142.097;  -10.250;  877.580
928.622;  140.920;  -13.030;  880.100
929.180;  142.005;  -13.400;  814.180
929.737;  143.895;  -10.700;  808.540
930.295;  145.776;  -10.070;  928.480
930.853;  145.719;  -11.960;  849.100
931.410;  143.767;  -13.120;  821.120
931.968;  144.537;  -10.770;  940.660
932.525;  146.502;  -10.680;  909.380
933.082;  149.703;  -13.130;  811.440
933.640;  155.867;  -13.210;  925.900
934.197;  156.519;  -11.060;  886.360
934.754;  156.914;   -9.580;  897.780
935.312;  157.456;  -14.000;  863.340
935.869;  161.767;  -10.710; 1012.980
936.426;  159.953;   -9.860;  872.800
936.983;  158.809;   -9.710;  889.020
937.540;  156.301;  -13.990;  838.280
938.097;  154.637;  -14.040;  940.120
938.654;  158.855;  -10.310;  898.860
939.211;  158.888;  -10.560;  952.480
939.768;  157.651;  -13.900;  915.420
940.324;  159.330;  -14.760;  904.200
940.881;  162.702;  -10.370;  878.500
941.438;  170.586;   -8.260; 1021.200
941.995;  171.433;  -12.540;  992.560
942.551;  169.797;  -14.670;  875.620
943.108;  170.127;  -10.450;  937.920
943.664;  170.191;  -10.750;  869.340
944.221;  176.994;  -11.550; 1088.140
944.777;  178.846;  -14.770;  869.680
945.334;  178.373;  -12.820;  884.840
945.890;  176.317;  -10.130;  946.480
946.446;  174.818;  -13.470;  947.020
947.003;  174.588;  -12.120;  964.940
947.559;  174.950;   -9.980; 1063.040
948.115;  171.277;   -9.080; 1026.540
948.671;  168.844;  -10.830;  967.300
949.227;  166.020;  -12.440;  859.560
949.783;  166.283;  -12.910;  858.900
950.339;  168.449;  -10.270;  991.000
950.895;  170.025;  -13.630; 1023.840
951.451;  169.750;  -15.100;  925.280
952.007;  169.615;  -11.330;  998.540
952.563;  167.830;  -10.580;  937.780
953.118;  163.083;  -13.440;  904.940
953.674;  161.140;  -12.710;  935.780
954.230;  161.190;  -10.350;  949.640
954.785;  166.184;   -9.190;  936.640
955.341;  166.872;  -11.200;  998.160
955.897;  164.007;  -16.560;  834.660
956.452;  163.030;  -12.570;  953.840
957.008;  161.358;   -7.970; 1083.640
957.563;  160.369;  -11.940; 1009.540
958.118;  158.680;  -13.450;  877.700
958.674;  159.189;  -12.030;  946.780
959.229;  159.502;   -9.410; 1013.980
959.784;  159.662;  -12.000;  832.400
960.339;  157.724;  -14.780; 1001.280
960.894;  152.495;   -9.860;  963.760
961.449;  146.235;   -9.970;  859.960
962.004;  140.421;  -10.900; 1212.840
962.559;  130.252;  -13.150;  860.140
963.114;  121.212;  -13.740;  742.480
963.669;  114.602;   -9.820;  915.500
964.224;  107.963;  -13.890;  874.340
964.779;  101.282;  -12.600;  828.420
965.334;   99.910;  -10.950; 1017.860
965.888;   98.318;  -11.170;  875.360
966.443;  101.737;  -12.540;  972.380
966.998;  104.734;  -15.780;  819.460
967.552;  108.361;   -9.760;  908.380
968.107;  107.240;   -9.060;  868.300
968.661;  108.251;  -11.950;  922.440
969.216;  107.423;  -12.800;  856.280
969.770;  108.243;  -11.210;  917.200
970.324;  106.481;  -11.610;  923.140
970.879;  105.506;  -11.370;  947.180
971.433;  105.388;  -12.540;  952.720
971.987;  104.657;  -11.320;  895.340
972.541;  103.254;  -10.720;  917.100
973.095;  104.406;   -9.680; 1009.460
973.649;  104.582;  -11.440;  809.480
974.203;  104.586;  -11.210;  829.040
974.757;  105.466;  -10.240;  855.220
975.311;  105.396;  -13.720;  872.600
975.865;  106.224;  -13.770;  881.820
976.419;  106.054;  -11.690;  857.400
976.973;  105.347;   -9.510;  849.620
977.526;  105.775;  -12.620;  949.920
978.080;  102.480;  -12.010;  796.780
978.634;  101.508;  -10.170;  921.320
979.187;   97.891;   -9.020;  905.400
979.741;   97.090;   -9.820; 1018.380
980.294;   93.490;  -14.870;  789.160
980.848;   89.378;  -12.380;  717.220
981.401;   89.471;  -10.350;  816.540
981.955;   88.538;  -13.720;  844.300
982.508;   86.991;  -11.490;  746.340
983.061;   87.230;  -10.000;  915.260
983.615;   85.508;  -11.480;  798.800
984.168;   85.169;  -13.220;  770.080
984.721;   84.865;  -13.960;  880.760
985.274;   83.195;  -10.870;  867.500
985.827;   82.174;   -9.790;  834.220
986.380;   80.583;  -13.120;  721.340
986.933;   81.577;  -12.450;  864.800
987.486;   80.971;  -10.210;  861.920
988.039;   79.891;   -8.430;  863.100
988.591;   76.803;  -10.520;  893.260
989.144;   73.960;  -14.860;  737.260
989.697;   71.320;  -13.080;  758.740
990.250;   71.675;  -10.150;  858.100
990.802;   69.626;  -13.430;  755.860
991.355;   68.743;  -12.750;  974.880
991.907;   66.350;  -12.040;  864.320
992.460;   63.957;  -11.330;  753.760
993.012;   63.250;  -13.610;  749.540
993.565;   61.814;  -13.460;  711.360
994.117;   63.887;   -9.360;  950.780
994.669;   60.668;  -11.300;  701.320
995.221;   60.666;  -13.540;  791.920
995.774;   59.675;  -13.430;  787.580
996.326;   58.297;  -12.520;  740.220
996.878;   58.564;  -10.950;  838.420
997.430;   56.062;  -14.300;  699.860
997.982;   55.828;  -13.760;  750.140
998.534;   54.565;  -11.530;  739.060
999.086;   52.983;  -10.310;  738.220
999.638;   52.380;  -12.530;  661.380
1000.190;   51.983;  -11.840;  699.320
1000.741;   51.355;  -10.260;  742.700
1001.293;   50.952;   -8.860;  686.020
1001.845;   50.302;  -13.700;  676.640
1002.396;   50.447;  -12.100;  743.400
1002.948;   50.079;  -12.760;  737.400
1003.500;   48.448;  -10.380;  723.780
1004.051;   48.883;  -11.900;  907.580
1004.603;   48.130;  -12.250;  791.820
1005.154;   44.014;  -13.210;  608.980
1005.705;   42.970;  -10.950;  723.960
1006.257;   43.093;  -13.880;  707.220
1006.808;   42.305;  -12.840;  685.460
1007.359;   41.995;  -10.570;  763.240
1007.910;   40.203;   -9.620;  646.640
1008.461;   40.162;  -13.630;  732.940
1009.013;   39.221;  -17.200;  588.340
1009.564;   40.572;  -10.200;  793.520
1010.115;   37.562;  -12.570;  597.040
1010.665;   38.584;  -15.150;  602.160
1011.216;   38.258;  -14.480;  667.920
1011.767;   37.551;  -11.340;  697.920
1012.318;   37.953;   -9.780;  736.980
1012.869;   36.981;  -12.380;  679.000
1013.419;   36.373;  -15.560;  603.120
1013.970;   36.132;  -11.010;  666.640
1014.521;   35.085;  -11.610;  620.620
1015.071;   35.828;  -13.450;  670.380
1015.622;   35.673;  -13.870;  635.460
1016.172;   35.191;  -11.610;  596.820
1016.723;   34.496;  -12.120;  614.380
1017.273;   34.575;  -13.620;  604.160
1017.823;   34.398;  -14.140;  650.340
1018.374;   34.170;  -12.800;  611.760
1018.924;   33.082;  -12.340;  716.880
1019.474;   34.614;  -11.410;  718.880
1020.024;   33.101;  -14.770;  657.580
1020.574;   33.124;   -9.780;  726.160
1021.124;   33.665;   -8.560;  673.580
1021.674;   32.450;  -15.190;  559.120
1022.224;   33.777;  -13.530;  708.940
1022.774;   32.622;  -13.280;  668.820
1023.324;   33.253;  -10.690;  753.520
1023.874;   34.574;  -10.240;  875.760
1024.423;   32.174;  -12.540;  613.700
1024.973;   32.132;  -10.010;  610.760
1025.523;   29.867;  -10.550;  620.960
1026.072;   30.082;  -13.560;  606.420
1026.622;   30.115;  -15.120;  675.740
1027.172;   31.556;  -11.260;  715.660
1027.721;   29.954;  -11.410;  601.220
1028.270;   30.465;  -13.530;  663.400
1028.820;   30.197;  -13.680;  638.080
1029.369;   29.817;  -13.520;  612.700
1029.918;   30.190;  -10.980;  649.840
1030.468;   29.121;  -13.530;  564.780
1031.017;   30.696;  -13.170;  634.800
1031.566;   29.295;  -12.200;  608.900
1032.115;   29.346;   -9.960;  694.500
1032.664;   28.311;  -13.210;  596.480
1033.213;   29.292;  -12.500;  735.420
1033.762;   27.942;  -11.910;  635.620
1034.311;   27.406;   -9.640;  677.220
1034.860;   28.690;  -13.310;  691.000
1035.408;   27.858;  -11.830;  722.720
1035.957;   28.506;  -12.000;  719.540
1036.506;   26.339;  -11.690;  530.800
1037.055;   29.132;  -10.990;  844.320
1037.603;   26.640;  -15.120;  664.000
1038.152;   25.463;  -12.450;  534.760
1038.700;   25.714;  -10.560;  585.740
1039.249;   25.734;  -11.080;  681.220
1039.797;   26.297;  -12.540;  633.360
1040.345;   26.363;  -11.920;  705.420
1040.894;   26.012;  -11.410;  625.300
1041.442;   25.644;  -14.320;  632.200
1041.990;   25.284;  -16.240;  559.160
1042.538;   24.331;  -11.680;  536.180
1043.087;   24.802;  -10.760;  570.860
1043.635;   25.926;  -11.850;  670.500
1044.183;   24.304;  -15.480;  586.400
1044.731;   23.762;  -11.770;  576.000
1045.279;   23.856;  -13.090;  674.920
1045.827;   25.731;  -12.440;  892.400
1046.374;   23.254;  -13.840;  515.420
1046.922;   21.891;  -13.220;  590.580
1047.470;   23.801;  -10.230;  691.300
1048.018;   24.313;  -14.590;  647.960
1048.565;   24.562;  -12.050;  708.600
1049.113;   22.847;  -11.650;  557.000
1049.660;   23.031;  -10.510;  629.660
1050.208;   23.591;  -13.310;  675.640
1050.755;   23.031;  -15.900;  606.580
1051.303;   23.375;  -11.430;  686.820
1051.850;   22.791;   -8.480;  635.120
1052.397;   20.686;  -15.010;  473.960
1052.945;   21.173;  -13.960;  617.760
1053.492;   23.190;  -13.150;  741.840
1054.039;   22.546;   -9.630;  720.180
1054.586;   21.410;  -13.680;  557.240
1055.133;   22.715;  -14.570;  693.140
1055.680;   22.355;  -13.820;  646.620
1056.227;   21.440;  -11.730;  542.780
1056.774;   23.053;  -12.480;  794.980
1057.321;   20.063;  -13.930;  523.260
1057.868;   21.252;  -11.690;  651.320
1058.415;   19.957;   -9.520;  651.980
1058.961;   20.826;  -13.160;  678.940
1059.508;   20.597;  -12.920;  643.820
1060.055;   20.230;  -11.920;  581.780
1060.601;   20.408;  -11.500;  624.300
1061.148;   20.813;  -14.330;  616.820
1061.694;   19.875;  -16.870;  592.580
1062.241;   20.688;  -10.330;  596.320
1062.787;   20.491;  -10.620;  663.140
1063.334;   21.357;  -10.110;  808.560
1063.880;   20.029;  -13.400;  668.360
1064.426;   19.812;  -10.680;  706.820
1064.972;   18.541;   -9.920;  601.340
1065.518;   17.436;  -10.980;  566.640
1066.065;   19.207;  -14.890;  624.460
1066.611;   17.908;  -12.870;  598.800
1067.157;   18.752;  -12.950;  641.860
1067.703;   18.888;  -13.540;  668.480
1068.249;   18.803;  -13.540;  605.220
1068.794;   18.219;  -12.600;  626.880
1069.340;   16.857;  -10.620;  578.960
1069.886;   17.859;  -12.830;  590.700
1070.432;   17.291;  -14.870;  541.720
1070.977;   16.600;  -11.980;  601.080
1071.523;   17.316;   -8.200;  573.060
1072.068;   17.404;  -12.330;  582.000
1072.614;   16.125;  -16.370;  527.760
1073.160;   17.717;  -11.100;  687.040
1073.705;   15.616;  -10.480;  572.520
1074.250;   16.681;  -14.520;  559.900
1074.796;   17.865;  -11.460;  655.160
1075.341;   17.003;  -11.950;  664.100
1075.886;   16.692;  -11.460;  594.240
1076.431;   16.438;  -13.770;  649.880
1076.976;   16.337;  -12.680;  639.220
1077.521;   14.964;  -13.170;  583.080
1078.067;   15.110;  -10.860;  579.400
1078.612;   15.966;  -13.920;  661.620
1079.156;   15.855;  -13.880;  601.540
1079.701;   15.196;  -13.120;  693.260
1080.246;   15.914;   -9.940;  696.300
1080.791;   15.928;  -14.740;  625.020
1081.336;   16.062;  -13.750;  659.320
1081.880;   15.589;  -13.400;  649.680
1082.425;   14.131;  -12.220;  573.480
1082.970;   16.750;  -11.610;  717.040
1083.514;   14.950;  -13.580;  597.000
1084.059;   14.206;  -12.810;  586.720
1084.603;   13.566;  -12.320;  565.840
1085.147;   14.886;  -13.190;  645.220
1085.692;   15.231;  -12.480;  716.800
1086.236;   13.463;  -13.020;  503.140
1086.780;   15.361;   -9.190;  751.440
1087.325;   14.352;  -12.480;  654.620
1087.869;   14.476;  -12.450;  610.700
1088.413;   14.718;  -12.240;  705.040
1088.957;   12.639;   -9.020;  543.400
1089.501;   15.011;  -10.320;  766.640
1090.045;   13.585;  -12.720;  726.480
1090.589;   11.596;  -13.690;  569.920
1091.133;   13.170;  -10.020;  673.340
1091.676;   13.381;  -12.330;  591.940
1092.220;   13.177;  -14.970;  600.920
1092.764;   13.732;  -12.430;  706.960
1093.307;   12.759;   -9.800;  673.780
1093.851;   11.806;  -14.970;  556.540
1094.395;   13.252;  -15.310;  683.140
1094.938;   12.485;  -10.370;  632.520
1095.482;   12.416;  -11.050;  559.800
1096.025;   12.768;  -11.840;  710.880
1096.568;   13.181;  -12.840;  779.280
1097.112;    9.555;  -14.700;  508.180
1097.655;   12.750;   -8.720;  603.000
1098.198;   10.386;  -13.610;  600.180
1098.741;   10.858;  -13.350;  612.860
1099.285;   11.440;  -11.230;  657.300
1099.828;   10.328;  -11.840;  439.400
1100.371;   11.264;  -10.840;  608.160
1100.914;   11.728;  -14.190;  682.660
1101.457;   11.708;  -11.240;  679.900
1101.999;   10.294;  -11.270;  584.680
1102.542;   11.090;  -11.480;  641.440
1103.085;   10.572;  -11.750;  658.500
1103.628;   10.439;  -11.400;  762.060
1104.170;    9.762;  -10.490;  588.280
1104.713;   10.585;  -10.600;  646.700
1105.256;    9.417;  -14.360;  557.440
1105.798;    9.280;  -13.210;  499.980
1106.341;   11.125;  -10.270;  728.900
1106.883;    9.597;  -12.200;  521.340
1107.425;   10.149;  -13.110;  668.180
1107.968;    8.975;  -12.840;  612.380
1108.510;   10.251;   -6.480;  684.960
1109.052;    8.124;  -13.940;  612.620
1109.594;    8.733;  -13.690;  554.440
1110.136;    9.438;  -11.880;  643.220
1110.679;    8.604;   -9.500;  633.080
1111.221;    9.597;  -14.160;  604.460
1111.763;    8.287;  -13.980;  559.220
1112.304;    8.271;  -13.880;  547.140
1112.846;    9.371;  -12.210;  666.240
1113.388;   12.239;  -11.390;  942.180
1113.930;    8.869;  -14.540;  694.200
1114.472;    7.863;  -12.640;  606.540
1115.013;    7.103;  -11.620;  551.280
1115.555;    7.442;  -13.640;  587.100
1116.097;    7.255;  -15.380;  579.480
1116.638;    7.806;  -12.640;  684.600
1117.180;    8.365;   -9.850;  667.740
1117.721;    7.735;  -13.690;  568.580
1118.262;    8.325;  -12.680;  677.960
1118.804;    8.417;  -12.530;  637.340
1119.345;    6.872;  -11.690;  578.400
1119.886;    8.299;  -13.380;  704.040
1120.427;    7.065;  -14.070;  589.020
1120.969;    6.402;  -13.500;  597.920
1121.510;    6.131;  -11.480;  563.060
1122.051;    8.196;  -12.830;  723.580
1122.592;    7.151;  -14.290;  655.420
1123.133;    5.281;  -12.400;  547.940
1123.673;    6.664;  -10.130;  706.480
1124.214;    6.080;  -12.930;  612.460
1124.755;    7.427;  -14.380;  639.460
1125.296;    6.441;  -14.000;  627.320
1125.836;    7.141;  -10.070;  691.500
1126.377;    5.811;  -12.640;  599.660
1126.918;    6.729;  -12.960;  614.980
1127.458;    5.720;  -13.350;  622.220
1127.999;    6.559;  -10.750;  656.980
1128.539;    6.152;  -12.350;  694.240
1129.079;    5.846;  -14.860;  632.720
1129.620;    5.255;  -13.840;  558.100
1130.160;    4.032;  -12.330;  539.480
1130.700;    5.505;  -14.530;  640.840
1131.240;    6.260;  -12.530;  643.700
1131.781;    5.361;  -14.450;  619.680
1132.321;    4.925;   -9.790;  599.120
1132.861;    4.451;  -14.860;  564.200
1133.401;    3.975;  -14.290;  593.940
1133.941;    5.182;  -11.750;  626.280
1134.481;    3.906;   -9.920;  597.580
1135.020;    4.633;  -12.290;  609.160
1135.560;    4.739;  -11.650;  674.940
1136.100;    3.394;  -16.270;  501.160
1136.640;    4.161;  -10.890;  510.480
1137.179;    3.990;  -14.180;  537.960
1137.719;    3.898;  -16.250;  605.400
1138.258;    4.123;  -14.230;  587.360
1138.798;    4.447;   -9.090;  663.780
1139.337;    3.078;  -15.130;  482.840
1139.877;    4.435;  -13.680;  642.360
1140.416;    5.988;  -11.320;  878.060
1140.955;    2.383;  -10.860;  535.380
1141.494;    3.633;  -12.920;  669.280
1142.034;    3.373;  -13.930;  583.520
1142.573;    4.312;  -11.440;  646.280
1143.112;    2.498;  -12.000;  553.480
1143.651;    3.468;  -13.670;  536.480
1144.190;    4.585;  -12.730;  691.640
1144.729;    2.398;  -14.560;  607.420
1145.267;    3.699;  -11.830;  584.900
1145.806;    4.192;  -12.230;  637.040
1146.345;    3.002;  -14.130;  635.020
1146.884;    2.537;  -11.590;  622.500
1147.422;    1.828;  -12.550;  533.060
1147.961;    3.687;  -11.180;  708.460
1148.500;    3.275;  -11.510;  669.720
1149.038;    3.232;  -11.640;  632.500
1149.577;    3.081;  -10.130;  698.640
1150.115;    0.677;  -13.970;  452.280
1150.653;    2.380;  -14.520;  607.340
1151.192;    2.471;  -12.810;  552.920
1151.730;    2.717;   -9.100;  652.560
1152.268;    2.170;  -12.220;  589.520
1152.806;    2.402;  -14.140;  571.180
1153.344;    0.765;  -12.350;  577.640
1153.882;    1.474;   -8.980;  600.060
1154.421;    0.366;  -15.190;  470.620
1154.958;    1.422;  -15.210;  595.240
1155.496;    1.850;  -12.850;  645.280
1156.034;    1.012;   -9.940;  721.880
1156.572;    2.749;  -13.570;  667.060
1157.110;    1.184;  -14.590;  473.940
1157.647;    1.640;  -13.030;  676.960
1158.185;    0.437;  -12.140;  564.320
1158.723;    0.437;  -14.390;  509.200
1159.260;    1.975;  -14.090;  701.700
1159.798;    1.132;  -11.920;  658.160
1160.335;   -0.241;  -11.110;  631.820

