
Integration time [ms]:   3.276
Averaging Nr. [scans]: 1000
Smoothing Nr. [pixels]: 0
Data measured with spectrometer [name]: 7414430SP
Wave   ;Sample   ;Dark     ;Reference
[nm]   ;[counts] ;[counts] ;[counts] 

288.544;  158.390;    7.793;  793.890
289.143;  160.900;    7.462;  681.602
289.742;  161.648;    8.602;  828.814
290.341;  149.502;    1.321;  789.841
290.940;  140.471;   -0.709;  730.702
291.538;  140.576;    0.881;  881.108
292.137;  140.609;    0.122;  792.581
292.736;  143.383;   -1.929;  975.101
293.335;  138.303;   -8.229;  735.086
293.934;  140.671;   -5.279;  781.677
294.532;  140.941;   -1.369; 1031.958
295.131;  126.786;   -7.641;  834.394
295.730;  126.831;   -8.420;  809.588
296.328;  123.665;   -5.611;  783.442
296.927;  122.789;   -5.781;  779.652
297.525;  125.355;   -6.361;  781.236
298.124;  117.390;  -11.382;  654.009
298.722;  121.702;   -7.641;  761.933
299.321;  118.403;   -6.811;  708.597
299.919;  114.346;   -6.991;  751.918
300.518;  111.145;  -10.362;  689.338
301.116;  114.159;   -9.581;  691.381
301.715;  113.935;   -4.891;  730.222
302.313;  112.687;   -8.801;  704.943
302.911;  107.471;   -8.522;  733.830
303.509;  112.184;   -6.171;  925.627
304.108;  110.377;   -7.311;  760.383
304.706;  110.300;   -8.321;  801.664
305.304;  104.308;  -10.222;  796.707
305.902;  109.462;   -6.021;  784.484
306.500;  105.395;   -4.971;  728.200
307.098;  103.524;   -7.061;  746.560
307.696;  102.032;   -8.801;  780.432
308.294;  101.898;   -6.411;  731.359
308.892;  104.110;   -2.901;  759.769
309.490;  100.326;   -5.041;  712.161
310.088;   98.471;   -5.002;  788.444
310.686;  102.112;   -2.041;  821.749
311.284;   97.971;   -2.351;  766.040
311.882;   95.907;   -4.422;  731.225
312.480;   92.964;   -4.192;  697.167
313.078;   94.012;   -1.172;  808.331
313.675;   94.322;   -2.601;  691.600
314.273;   89.687;   -1.312;  797.837
314.871;   88.799;   -3.942;  589.829
315.468;   86.881;   -2.802;  652.090
316.066;   89.740;   -0.701;  694.427
316.664;   83.051;   -4.362;  656.351
317.261;   87.735;   -2.872;  910.128
317.859;   81.530;   -2.022;  768.735
318.456;   82.570;   -0.531;  830.096
319.054;   78.896;   -3.912;  787.828
319.651;   77.708;   -4.752;  759.928
320.249;   76.170;   -2.602;  810.188
320.846;   73.267;   -0.821;  714.286
321.443;   71.132;   -4.642;  832.135
322.041;   68.021;   -5.002;  812.315
322.638;   65.637;   -3.982;  701.456
323.235;   66.796;   -3.411;  665.683
323.833;   64.237;   -7.361;  740.354
324.430;   58.900;   -8.611;  615.900
325.027;   59.821;   -4.061;  876.855
325.624;   59.275;   -4.031;  644.532
326.221;   56.560;   -7.481;  689.717
326.818;   56.224;   -5.281;  818.332
327.415;   58.904;   -7.460;  748.828
328.012;   57.996;   -5.510;  690.585
328.609;   56.995;   -7.880;  731.389
329.206;   55.971;   -8.331;  778.621
329.803;   54.441;   -5.121;  737.841
330.400;   57.337;   -4.510;  704.260
330.997;   58.628;   -6.441;  817.147
331.594;   56.987;   -8.831;  788.185
332.191;   62.375;   -7.621;  728.722
332.787;   66.003;   -4.591;  844.463
333.384;   65.442;   -7.412;  763.093
333.981;   64.690;   -8.293;  815.687
334.578;   67.663;   -7.052;  708.378
335.174;   70.079;   -3.102;  731.469
335.771;   69.202;   -5.943;  836.456
336.367;   66.725;   -7.393;  710.631
336.964;   71.954;   -4.063;  793.266
337.561;   68.366;   -3.813;  731.112
338.157;   64.644;   -4.654;  911.916
338.754;   63.086;   -7.934;  796.589
339.350;   61.002;   -4.414;  722.493
339.946;   62.623;   -4.664;  773.135
340.543;   55.004;   -6.375;  846.136
341.139;   48.860;   -9.815;  720.836
341.735;   45.888;   -4.526;  772.593
342.332;   45.459;   -4.895;  691.472
342.928;   45.824;   -4.295;  795.394
343.524;   37.800;   -5.476;  761.684
344.120;   34.328;   -5.856;  738.562
344.716;   37.665;   -2.155;  723.717
345.313;   34.538;   -6.275;  795.342
345.909;   29.183;   -8.815;  627.336
346.505;   30.884;   -5.305;  740.247
347.101;   31.374;   -2.674;  827.864
347.697;   32.949;   -4.344;  785.398
348.293;   26.265;   -9.975;  627.244
348.889;   27.683;   -5.774;  745.914
349.485;   26.237;   -5.004;  688.205
350.081;   28.001;   -4.704;  772.592
350.676;   22.433;   -6.635;  691.606
351.272;   26.814;   -4.504;  809.530
351.868;   26.651;   -3.914;  780.497
352.464;   24.352;   -9.044;  723.932
353.059;   20.435;   -8.314;  646.017
353.655;   23.164;   -7.024;  777.063
354.251;   24.307;   -5.343;  759.845
354.846;   18.956;   -8.604;  740.646
355.442;   16.064;   -6.945;  753.071
356.038;   18.446;   -7.564;  751.708
356.633;   18.910;   -5.814;  728.594
357.229;   15.895;   -7.364;  724.757
357.824;   14.224;   -8.024;  703.600
358.420;   14.007;   -9.384;  679.726
359.015;   14.407;   -5.104;  695.357
359.610;   15.871;   -6.854;  763.920
360.206;    8.847;  -10.185;  603.240
360.801;   11.779;   -7.054;  646.503
361.396;   14.286;   -5.034;  725.975
361.992;    9.712;   -8.284;  668.220
362.587;    6.207;   -8.625;  670.160
363.182;    8.560;   -7.674;  689.631
363.777;    9.771;   -5.164;  738.242
364.372;    9.423;   -8.604;  737.314
364.967;    4.517;   -9.055;  680.744
365.563;    8.828;   -6.114;  815.567
366.158;    6.294;   -5.814;  685.161
366.753;    7.013;   -7.854;  649.263
367.348;    5.589;   -7.804;  746.056
367.942;    5.417;   -7.954;  697.298
368.537;    3.998;   -4.984;  754.245
369.132;    4.618;   -8.564;  703.428
369.727;    0.810;   -8.855;  638.079
370.322;    0.704;   -6.245;  580.186
370.917;    1.198;   -6.425;  710.646
371.511;    4.274;   -6.294;  861.834
372.106;    0.574;   -7.685;  776.964
372.701;   -2.399;   -7.335;  585.988
373.296;    1.981;   -4.564;  863.135
373.890;   -2.376;  -10.235;  647.840
374.485;   -5.046;   -7.885;  691.199
375.079;   -0.121;   -7.324;  738.685
375.674;    0.563;   -3.494;  812.970
376.268;   -3.720;   -8.525;  691.759
376.863;   -9.308;  -10.086;  580.327
377.457;   -2.722;   -7.025;  662.490
378.052;   -4.704;   -3.585;  764.884
378.646;   -6.214;   -7.595;  741.167
379.240;   -6.322;   -8.335;  721.176
379.835;   -6.352;   -5.785;  636.978
380.429;   -7.492;   -4.335;  562.557
381.023;   -7.793;   -6.805;  779.205
381.617;  -10.092;   -9.195;  680.106
382.212;   -6.635;   -6.905;  685.303
382.806;   -6.049;   -3.745;  760.690
383.400;   -9.866;   -7.745;  672.281
383.994;  -11.395;   -9.765;  664.870
384.588;   -7.578;   -6.564;  697.701
385.182;   -6.012;   -5.344;  726.624
385.776;   -7.857;   -8.514;  706.875
386.370;  -10.918;   -9.555;  681.968
386.964;   -9.742;   -8.715;  684.155
387.558;   -7.940;   -6.174;  598.360
388.152;  -11.456;   -8.725;  681.959
388.745;   -9.493;   -7.965;  814.707
389.339;   -7.720;   -5.924;  747.642
389.933;   -7.184;   -5.524;  695.370
390.527;   -7.821;   -7.114;  859.029
391.120;  -14.632;  -10.725;  595.318
391.714;  -11.736;   -8.035;  711.633
392.308;   -8.338;   -3.574;  780.253
392.901;  -12.172;   -7.245;  642.460
393.495;  -14.049;   -9.285;  595.414
394.089;  -11.312;   -5.895;  760.452
394.682;  -12.309;   -4.295;  697.188
395.275;  -13.205;   -9.875;  719.927
395.869;  -13.904;   -8.485;  667.314
396.462;  -12.888;   -7.455;  616.609
397.056;   -7.987;   -5.424;  776.621
397.649;  -14.193;   -6.605;  731.575
398.242;  -10.891;   -8.224;  712.645
398.836;  -10.556;   -7.474;  766.408
399.429;  -11.329;   -7.094;  631.041
400.022;  -14.768;   -9.475;  665.902
400.615;  -12.467;   -7.145;  805.609
401.208;  -10.161;   -7.174;  691.451
401.802;  -12.803;   -5.515;  699.329
402.395;  -13.846;   -9.875;  683.502
402.988;  -14.592;   -8.845;  696.627
403.581;  -11.637;   -8.874;  646.878
404.174;   -9.007;   -5.324;  686.568
404.767;  -12.459;   -9.575;  638.583
405.360;  -14.653;  -10.965;  621.445
405.953;   -9.478;   -8.764;  759.034
406.545;   -9.067;   -7.514;  725.342
407.138;  -12.972;  -10.025;  618.350
407.731;  -11.883;  -10.034;  613.303
408.324;   -8.594;   -9.374;  660.554
408.917;   -8.665;   -6.534;  681.864
409.509;  -11.089;   -8.004;  740.396
410.102;  -12.612;   -9.875;  643.948
410.695;   -6.694;   -8.604;  665.758
411.287;   -7.528;   -6.794;  599.821
411.880;   -8.655;   -9.334;  585.421
412.472;  -11.660;  -10.254;  613.092
413.065;   -9.002;   -6.714;  629.408
413.657;   -7.124;   -7.234;  576.678
414.250;   -6.961;  -10.544;  646.681
414.842;   -9.672;   -9.744;  676.353
415.434;   -6.615;   -6.994;  570.463
416.027;   -2.849;   -5.893;  652.196
416.619;   -4.585;   -7.264;  713.400
417.211;   -5.048;  -10.374;  599.352
417.804;   -1.353;   -7.993;  628.499
418.396;   -5.647;   -7.234;  607.643
418.988;   -2.983;   -9.443;  659.238
419.580;   -6.825;  -10.724;  568.276
420.172;   -4.010;  -10.323;  536.196
420.764;   -0.226;   -8.793;  672.482
421.356;   -1.538;  -11.143;  636.898
421.948;   -2.798;   -8.293;  677.661
422.540;    2.371;   -7.893;  680.027
423.132;    2.050;   -7.082;  600.641
423.724;   -0.777;   -8.653;  561.267
424.316;    0.830;  -10.213;  621.345
424.908;    4.241;   -9.762;  591.517
425.500;    5.079;   -5.572;  647.978
426.092;    5.345;   -8.422;  648.268
426.683;    3.956;   -9.283;  684.836
427.275;    6.732;   -7.852;  641.471
427.867;    8.373;   -5.272;  668.948
428.458;    9.814;   -7.682;  732.344
429.050;    7.652;  -10.612;  680.749
429.642;    9.742;   -9.882;  743.124
430.233;   10.346;   -6.962;  569.356
430.825;   11.478;   -6.842;  724.809
431.416;    9.234;   -9.672;  698.241
432.008;   12.526;   -6.552;  651.723
432.599;   12.902;   -6.891;  656.073
433.190;    9.802;  -10.912;  637.670
433.782;    9.211;  -11.172;  590.395
434.373;   17.666;   -6.061;  884.765
434.964;   16.232;   -8.251;  602.920
435.556;   13.505;   -9.722;  634.537
436.147;   16.087;   -9.082;  758.490
436.738;   15.553;   -8.041;  701.099
437.329;   21.793;   -7.341;  721.723
437.920;   14.534;   -8.162;  666.688
438.511;   14.316;  -11.802;  564.526
439.103;   20.910;  -10.191;  623.998
439.694;   22.900;   -7.601;  681.583
440.285;   23.510;   -8.541;  764.432
440.876;   21.199;   -9.751;  845.738
441.466;   20.734;   -9.401;  575.162
442.057;   26.636;   -7.760;  665.814
442.648;   25.409;   -9.971;  746.255
443.239;   23.105;  -11.001;  620.477
443.830;   28.410;   -7.990;  704.958
444.421;   30.408;   -7.910;  655.474
445.011;   26.911;   -8.131;  693.619
445.602;   26.829;   -7.111;  743.126
446.193;   28.218;  -10.920;  488.117
446.783;   32.483;   -6.500;  640.397
447.374;   28.199;   -8.671;  692.759
447.964;   28.420;  -10.781;  713.770
448.555;   36.923;   -9.650;  822.742
449.145;   33.763;   -8.660;  662.853
449.736;   34.587;   -8.990;  803.179
450.326;   34.758;   -9.500;  713.626
450.917;   39.402;   -8.680;  675.324
451.507;   38.715;   -7.520;  600.661
452.097;   39.382;   -8.590;  746.267
452.688;   40.311;  -11.340;  742.160
453.278;   40.050;  -10.100;  566.840
453.868;   44.918;   -6.019;  793.550
454.458;   42.125;   -9.440;  651.141
455.048;   42.061;  -10.560;  711.783
455.639;   44.246;  -11.799;  567.096
456.229;   47.743;   -6.899;  710.694
456.819;   49.446;   -7.389;  751.158
457.409;   50.446;  -11.119;  773.993
457.999;   52.892;   -9.289;  737.505
458.589;   52.565;   -6.139;  686.606
459.179;   53.056;   -8.729;  717.658
459.769;   50.936;   -9.789;  627.099
460.358;   55.805;  -10.259;  797.262
460.948;   55.459;   -7.299;  689.503
461.538;   57.584;  -10.289;  660.677
462.128;   55.096;  -11.269;  664.934
462.717;   61.285;   -9.368;  710.326
463.307;   64.228;   -7.908;  705.846
463.897;   60.936;   -9.599;  656.942
464.486;   60.034;   -9.769;  837.128
465.076;   64.679;   -8.048;  733.776
465.666;   67.124;   -9.358;  652.900
466.255;   65.909;   -7.919;  785.651
466.845;   64.345;  -11.689;  666.749
467.434;   68.374;   -7.818;  725.873
468.023;   68.970;   -7.678;  658.357
468.613;   66.297;  -10.939;  713.946
469.202;   71.232;  -10.118;  646.507
469.791;   75.018;   -9.108;  737.811
470.381;   77.867;   -6.058;  742.813
470.970;   76.525;  -10.428;  711.099
471.559;   76.592;  -10.268;  733.291
472.148;   79.442;   -8.448;  675.737
472.738;   82.337;   -6.917;  765.466
473.327;   81.507;  -11.978;  637.529
473.916;   80.698;  -11.888;  737.446
474.505;   84.834;   -9.437;  751.703
475.094;   88.568;   -6.747;  806.570
475.683;   87.406;   -9.367;  797.699
476.272;   89.076;  -12.637;  730.632
476.861;   91.744;  -10.027;  706.754
477.449;   98.101;   -8.716;  728.487
478.038;   91.769;   -9.577;  692.513
478.627;   94.379;   -9.718;  714.852
479.216;   99.954;   -8.947;  769.441
479.805;  103.309;   -6.256;  783.375
480.393;  103.356;   -7.937; 1008.945
480.982;  102.282;   -7.717;  874.501
481.571;  108.996;   -9.266;  858.333
482.159;  109.562;   -7.636;  705.386
482.748;  109.494;   -9.667;  821.385
483.336;  114.448;  -10.376;  858.209
483.925;  114.773;   -7.147;  774.373
484.513;  121.305;   -7.996;  758.962
485.102;  118.645;  -10.027;  810.965
485.690;  127.947;  -10.446; 1011.050
486.278;  127.829;   -8.446;  979.329
486.867;  129.333;   -6.356;  809.662
487.455;  131.093;   -9.136;  898.229
488.043;  133.110;  -10.646;  748.361
488.631;  142.777;   -7.456; 1005.079
489.220;  146.001;   -6.636;  908.626
489.808;  145.143;  -11.036;  741.415
490.396;  154.876;  -10.246;  914.645
490.984;  161.028;   -8.556;  830.161
491.572;  172.906;   -5.886;  940.315
492.160;  180.072;   -9.486;  919.081
492.748;  192.643;  -10.976;  884.341
493.336;  215.795;   -8.776; 1019.693
493.924;  244.472;   -5.465;  958.077
494.512;  277.588;   -9.986; 1066.638
495.100;  325.712;  -10.636; 1103.280
495.687;  386.921;  -10.885; 1206.373
496.275;  438.883;   -8.126; 1150.796
496.863;  509.401;  -10.586; 1281.171
497.451;  625.750;  -11.926; 1386.805
498.038;  736.485;  -10.885; 1556.729
498.626;  829.439;   -6.315; 1741.407
499.214;  981.851;   -7.326; 2016.609
499.801; 1207.649;  -11.906; 2220.633
500.389; 1455.969;  -10.466; 2312.494
500.976; 1683.206;   -5.236; 2744.849
501.564; 2111.548;   -8.936; 3148.565
502.151; 2613.487;  -13.176; 3515.999
502.738; 3133.988;  -10.646; 3971.274
503.326; 3504.988;   -9.525; 4403.796
503.913; 3774.906;  -10.856; 5161.749
504.500; 4252.598;  -11.586; 5986.420
505.088; 4593.884;  -10.336; 6381.201
505.675; 5059.032;   -6.355; 6925.547
506.262; 5511.487;   -9.046; 7619.060
506.849; 5979.898;  -10.416; 8733.969
507.436; 6467.881;  -10.305; 9790.121
508.023; 6946.245;   -5.496; 9985.472
508.610; 7885.708;   -7.856;10434.618
509.197; 9255.811;  -10.097;11198.435
509.784;10633.134;  -10.886;12391.194
510.371;11860.902;   -9.315;13603.713
510.958;12682.038;   -9.936;14426.586
511.545;13413.437;   -9.326;15243.775
512.132;14080.651;  -10.075;15945.876
512.719;14234.547;   -7.796;16340.369
513.305;15026.378;  -10.606;18011.766
513.892;16365.513;  -11.486;19754.971
514.479;18162.066;   -9.126;20967.805
515.066;19772.678;   -6.026;22299.793
515.652;20008.184;   -8.466;22908.660
516.239;20902.984;  -10.886;23798.875
516.825;23209.934;  -11.496;25567.275
517.412;25407.088;   -5.796;28154.959
517.998;27247.709;  -10.506;28344.111
518.585;26858.396;  -10.076;27134.219
519.171;25514.357;   -8.315;27268.576
519.758;25976.900;   -8.596;28964.129
520.344;27041.359;   -8.466;30664.494
520.930;29188.039;  -11.006;32550.605
521.516;29318.512;  -10.495;35422.895
522.103;27955.955;   -5.526;38280.004
522.689;28075.740;   -8.746;37835.117
523.275;29233.201;  -11.376;37288.613
523.861;29908.078;  -11.156;37281.395
524.447;30602.521;   -8.135;37846.949
525.033;30400.705;   -7.896;38321.949
525.619;32165.852;  -12.476;38579.285
526.205;35522.207;   -9.516;40622.875
526.791;37276.824;   -6.926;42258.836
527.377;39117.668;   -8.346;42966.902
527.963;40835.484;   -8.717;42018.949
528.549;39798.109;  -11.016;42476.828
529.135;40112.871;   -8.536;41854.852
529.721;39459.297;   -9.666;41237.711
530.306;37660.523;  -10.066;41259.445
530.892;38070.637;  -11.356;41506.047
531.478;37548.914;   -6.596;43559.613
532.063;37996.508;   -8.836;47695.563
532.649;41192.402;  -10.047;50808.324
533.235;42555.156;   -9.746;51787.500
533.820;41654.719;   -6.566;52145.035
534.406;41204.008;  -10.817;51133.488
534.991;44139.133;   -9.416;49996.805
535.576;45394.195;   -9.036;48882.852
536.162;45347.414;   -6.156;46942.285
536.747;45951.082;  -11.607;45711.746
537.333;46175.738;  -11.787;48510.180
537.918;46028.125;  -12.437;50439.891
538.503;46675.434;   -7.196;50863.711
539.088;44913.398;  -10.556;50906.922
539.673;43074.434;   -8.767;52621.965
540.259;43389.199;  -10.026;52368.094
540.844;43918.828;   -7.416;50879.109
541.429;40668.547;   -9.467;52077.777
542.014;37506.191;   -9.527;52716.695
542.599;37781.465;   -9.946;52363.281
543.184;41281.973;   -7.927;53187.137
543.769;43854.480;   -9.297;54697.605
544.354;44521.563;  -10.127;53913.914
544.938;44834.688;   -9.267;49680.164
545.523;47672.770;   -6.506;47386.277
546.108;50725.109;   -9.787;49151.949
546.693;50620.340;  -11.587;51384.637
547.278;51158.258;  -10.986;51853.254
547.862;47778.578;   -8.206;51173.750
548.447;44926.480;  -10.067;51691.395
549.031;45626.840;   -9.637;52456.703
549.616;46657.727;   -9.926;52714.516
550.201;45713.336;   -6.347;52414.598
550.785;44468.754;   -7.917;52355.059
551.370;45320.801;  -10.867;54589.453
551.954;46675.707;   -9.047;58267.348
552.538;48323.559;   -7.827;59062.176
553.123;48012.520;  -10.287;58115.285
553.707;43508.785;  -12.178;56556.285
554.291;44184.199;   -8.717;56201.668
554.876;47421.512;   -7.457;55335.762
555.460;48367.711;  -10.387;54155.703
556.044;49088.820;   -9.618;53721.484
556.628;48022.609;  -11.567;53731.016
557.212;45797.293;   -8.097;54312.531
557.796;47073.086;  -11.077;53797.773
558.380;45592.770;  -11.108;56145.984
558.964;44507.461;   -9.057;57277.930
559.548;44610.262;   -6.977;56459.641
560.132;43360.941;  -11.457;54434.543
560.716;41953.840;  -11.378;54800.617
561.300;42966.531;   -9.577;57606.945
561.884;45428.543;   -7.127;58972.445
562.467;46276.738;   -7.118;57327.570
563.051;46117.223;  -13.358;54962.434
563.635;43266.750;  -10.178;52594.473
564.219;42279.570;   -7.837;50610.410
564.802;41776.078;  -11.398;49551.180
565.386;42887.141;  -12.788;48370.953
565.969;43925.262;   -9.077;48178.871
566.553;44439.195;   -6.207;49957.305
567.136;41979.441;   -8.568;50369.594
567.720;40993.566;  -11.868;49492.004
568.303;41041.309;   -8.268;50616.352
568.887;39719.074;   -8.698;50727.148
569.470;39393.898;   -6.808;51698.379
570.053;37717.105;  -13.188;52122.078
570.637;36439.770;  -12.037;52536.438
571.220;36239.488;   -8.577;51186.098
571.803;37013.895;   -8.498;51032.762
572.386;39406.328;  -10.498;49609.887
572.969;40814.457;   -9.388;48285.926
573.552;37300.922;   -8.338;47624.285
574.135;35705.078;   -8.518;45498.641
574.718;32331.922;  -13.628;41970.434
575.301;31610.189;  -10.893;41447.137
575.884;30888.455;   -8.158;40923.836
576.467;35605.195;  -10.328;45267.723
577.050;34016.004;  -13.058;48175.543
577.633;32883.320;   -9.458;47729.328
578.216;34544.977;   -8.928;47579.793
578.799;35698.844;   -9.358;47820.996
579.381;34926.141;  -11.388;48115.551
579.964;32190.648;  -11.718;47333.766
580.547;32177.816;   -8.588;46668.969
581.129;33532.914;   -8.859;44466.141
581.712;33707.684;  -10.729;44164.922
582.294;35457.645;  -11.118;46477.855
582.877;33417.129;   -5.218;48244.254
583.459;33736.035;   -8.679;47437.895
584.042;35752.074;  -10.709;46943.219
584.624;37767.688;  -11.669;46792.227
585.206;36228.574;   -8.218;46557.250
585.789;34886.789;  -10.569;45793.773
586.371;35311.000;  -11.859;43836.391
586.953;34092.457;  -10.719;42972.492
587.536;36148.918;   -7.198;42487.211
588.118;37336.859;   -8.720;42086.414
588.700;36456.047;  -10.439;43389.930
589.282;36089.309;   -9.198;43646.039
589.864;35119.965;   -9.199;43438.109
590.446;33319.363;  -11.319;43151.926
591.028;32860.844;  -11.159;42781.867
591.610;32446.367;  -11.779;42839.098
592.192;29021.961;   -7.668;42820.402
592.774;29849.791;  -11.949;40724.277
593.356;31000.975;  -12.129;39874.789
593.937;29431.818;  -10.669;39980.648
594.519;30777.275;   -6.509;42069.633
595.101;32673.600;  -10.849;42976.031
595.683;31404.477;  -11.679;44084.441
596.264;30745.830;   -9.049;43478.797
596.846;32831.809;   -8.849;43803.672
597.427;33105.059;   -9.570;42986.934
598.009;34283.820;  -12.620;42832.219
598.591;33581.703;  -10.039;42580.086
599.172;32539.146;  -10.369;43061.805
599.753;30890.400;   -9.140;41691.469
600.335;31000.453;  -11.430;40692.520
600.916;31172.102;   -9.939;39982.422
601.498;29681.549;   -8.479;40318.617
602.079;28567.805;  -10.920;40670.609
602.660;30882.922;  -11.480;41450.898
603.241;32375.037;  -11.699;41137.738
603.823;32314.059;   -9.579;38868.797
604.404;32117.314;  -10.620;38182.785
604.985;31059.846;  -10.450;38078.047
605.566;30602.301;   -9.129;38056.633
606.147;30345.258;   -7.510;37020.418
606.728;31373.836;  -10.660;37883.359
607.309;31950.367;  -11.740;38748.273
607.890;31519.143;   -9.759;38850.230
608.471;30495.924;   -8.250;37457.918
609.051;31456.561;   -9.240;36066.457
609.632;29406.555;  -12.120;35991.074
610.213;27717.494;   -9.110;37402.641
610.794;29611.592;   -8.030;38383.363
611.374;32253.523;   -8.110;40562.387
611.955;31966.662;  -13.560;38533.727
612.536;29333.951;  -11.400;36951.789
613.116;28237.672;   -8.070;37197.891
613.697;30116.617;  -10.830;38411.125
614.277;31354.033;  -11.641;38673.938
614.858;30666.705;  -13.310;37075.863
615.438;29366.396;   -7.460;35092.906
616.019;27987.053;   -7.601;33666.301
616.599;28611.195;  -12.020;34189.023
617.179;30146.678;  -11.780;36952.047
617.760;33017.129;   -8.570;39582.574
618.340;33252.148;  -11.471;38943.977
618.920;31807.119;  -11.170;37594.156
619.500;33533.965;  -11.071;37866.938
620.080;33684.988;   -7.750;37869.043
620.660;31817.680;  -12.711;36868.617
621.241;30027.742;  -10.211;36352.309
621.821;29009.053;  -10.961;35459.520
622.401;28588.479;   -7.720;35207.414
622.980;29737.568;   -8.981;35980.422
623.560;29854.457;   -9.331;37351.328
624.140;28592.039;   -9.850;34388.582
624.720;26170.883;   -7.451;32368.764
625.300;24460.156;   -9.070;32638.629
625.880;27682.527;  -12.601;34599.035
626.459;29657.836;  -11.751;36831.738
627.039;31318.416;   -9.281;38299.098
627.619;33218.840;   -8.801;38289.574
628.198;31843.178;  -12.071;37220.695
628.778;30723.773;   -9.461;37632.563
629.357;31642.182;   -8.491;38003.012
629.937;31751.352;   -9.721;38402.039
630.516;32074.330;   -9.951;37868.801
631.096;32403.461;  -11.731;35760.410
631.675;33878.688;   -8.572;35225.219
632.254;33483.348;  -11.282;35130.289
632.834;32586.449;  -13.322;35794.570
633.413;32410.123;  -10.301;35788.922
633.992;31639.449;   -8.582;34532.863
634.571;32869.672;   -8.352;33590.113
635.151;32740.529;  -11.912;34943.863
635.730;32716.328;  -10.511;35352.523
636.309;34965.148;   -7.731;35366.605
636.888;32379.275;   -9.952;36165.637
637.467;30860.330;  -11.672;37515.902
638.046;31163.807;   -8.901;39288.695
638.625;32460.834;   -7.912;38279.699
639.204;32411.350;  -10.022;37741.598
639.782;30294.293;  -12.252;38364.551
640.361;28526.799;  -10.041;36740.621
640.940;27674.900;  -11.161;34950.082
641.519;28739.156;   -9.701;34137.398
642.097;30590.043;  -11.271;35654.258
642.676;32670.268;   -8.651;35637.957
643.255;34033.879;   -8.711;36567.074
643.833;31359.496;   -9.581;37809.434
644.412;28895.906;  -13.711;37337.293
644.990;30937.715;  -11.811;37018.531
645.569;33590.387;   -9.411;36518.469
646.147;32520.443;  -10.291;36186.430
646.726;31169.676;  -12.401;36267.688
647.304;31106.428;  -10.411;36647.625
647.882;30490.111;   -9.651;39286.742
648.461;32184.605;   -9.631;39157.703
649.039;35506.039;  -11.881;35412.883
649.617;35194.254;   -9.661;34744.918
650.195;32937.422;   -9.301;35403.098
650.773;31791.947;  -10.511;35053.797
651.352;30798.080;  -11.521;33756.816
651.930;28891.760;  -12.211;31868.773
652.508;26172.578;   -9.171;33121.551
653.086;26973.334;   -9.371;33564.793
653.663;32499.963;  -13.161;34054.668
654.241;35864.234;  -13.031;35693.309
654.819;36724.398;   -9.371;36422.906
655.397;36822.422;  -10.511;38213.484
655.975;33502.426;  -10.371;39507.625
656.553;30315.953;  -10.051;39498.223
657.130;28941.516;  -10.061;40395.480
657.708;27151.467;   -9.561;39242.020
658.286;24426.539;  -11.511;38920.020
658.863;26534.141;  -10.261;40202.898
659.441;30314.775;   -7.531;39677.938
660.018;32481.824;   -9.501;40413.355
660.596;31777.564;  -13.301;39931.414
661.173;31678.121;  -11.211;39604.531
661.750;33383.602;   -9.951;39700.070
662.328;32498.664;   -9.390;39292.809
662.905;31065.477;  -11.330;38235.648
663.482;28210.266;   -9.050;36212.305
664.060;25125.182;   -8.240;35944.945
664.637;25798.203;  -10.050;35170.785
665.214;29115.109;  -11.760;34197.523
665.791;29788.473;  -10.530;34549.520
666.368;28748.563;   -9.690;35118.578
666.945;30267.385;   -9.320;36019.418
667.522;30971.998;  -11.860;36048.438
668.099;32203.580;  -10.770;36243.914
668.676;32238.988;   -6.260;35958.875
669.253;34490.680;   -7.000;37384.730
669.830;35545.809;  -10.190;36779.629
670.407;32577.928;   -9.550;35231.289
670.984;33281.840;   -9.260;35544.270
671.560;30377.063;   -9.280;35466.867
672.137;26318.012;  -11.810;34280.863
672.714;28529.799;  -11.490;34632.863
673.290;31971.518;   -7.740;35135.422
673.867;31353.408;  -10.660;36114.480
674.443;31413.514;  -12.230;36152.859
675.020;31168.803;  -10.450;35327.238
675.596;29960.068;   -9.260;35795.176
676.173;29156.152;  -10.780;35430.355
676.749;28900.078;  -13.690;33549.516
677.326;28750.387;  -11.980;32210.012
677.902;28255.971;   -8.630;32068.871
678.478;29742.789;  -10.730;32583.891
679.054;30224.082;  -10.520;32088.928
679.631;29711.377;  -11.920;30978.848
680.207;29649.736;   -7.490;33160.887
680.783;31413.408;   -9.860;35570.363
681.359;33070.125;  -13.380;36125.184
681.935;33936.195;  -12.480;35240.922
682.511;33080.969;   -7.900;34429.961
683.087;31858.502;   -7.710;34463.680
683.663;31282.824;  -11.480;34648.898
684.239;29746.096;  -14.090;34546.457
684.815;28535.178;   -7.560;35586.375
685.390;29347.906;   -9.910;35821.895
685.966;31140.727;  -11.159;35085.871
686.542;32619.594;  -11.169;34198.230
687.118;33727.391;   -5.959;32847.707
687.693;32714.461;  -10.329;32794.027
688.269;33548.168;  -12.059;33072.367
688.844;33390.820;  -10.909;33141.664
689.420;30597.498;   -8.019;33965.742
689.995;29779.365;   -8.399;34655.523
690.571;30973.943;  -10.949;33576.742
691.146;30136.328;   -9.619;32657.219
691.722;28639.076;   -8.999;32526.979
692.297;27995.918;  -11.589;33014.617
692.872;28050.992;  -11.739;34012.254
693.448;30953.779;  -11.059;34237.434
694.023;31302.330;  -10.139;34142.672
694.598;29440.086;   -9.029;34132.031
695.173;30563.180;  -13.319;34205.250
695.748;30596.754;  -10.169;32882.488
696.323;28450.234;   -8.339;32864.906
696.898;27456.641;   -8.169;33170.004
697.473;28272.197;  -12.309;32432.984
698.048;28238.150;  -10.989;31649.303
698.623;27130.307;   -9.329;30778.141
699.198;28172.736;   -9.849;31140.119
699.773;28900.979;  -12.329;31764.299
700.348;30098.172;  -10.389;31780.816
700.922;30420.869;   -9.269;32046.375
701.497;31186.797;   -9.329;32603.574
702.072;32216.949;  -10.789;34799.871
702.646;31259.021;  -10.839;35793.172
703.221;30898.520;   -9.099;35201.590
703.795;32795.805;  -10.939;34764.527
704.370;30174.908;  -12.859;34307.367
704.944;28660.904;  -11.559;33509.887
705.519;29907.143;   -7.939;31388.584
706.093;31661.504;  -10.499;31340.104
706.668;33264.242;  -11.289;32630.281
707.242;32429.723;  -11.509;32728.779
707.816;30587.268;   -9.639;32947.238
708.390;29702.686;  -11.429;33277.855
708.965;29439.109;  -11.869;33834.336
709.539;31067.035;  -11.689;33709.273
710.113;31400.666;  -10.478;33044.313
710.687;30670.602;  -10.228;31953.992
711.261;30027.377;  -13.698;30505.949
711.835;30302.129;  -13.378;30262.369
712.409;28958.703;   -9.698;31254.447
712.983;28436.373;  -11.898;32754.986
713.557;30669.539;  -15.138;34018.824
714.131;28922.523;  -14.098;34579.625
714.704;28553.793;   -9.958;33890.262
715.278;30654.193;  -10.028;33531.102
715.852;28975.063;  -11.148;33601.660
716.425;27701.221;   -9.068;33515.117
716.999;26687.137;  -10.038;33185.555
717.573;26626.975;   -9.798;33905.996
718.146;26140.395;  -12.378;35199.293
718.720;26331.465;  -11.918;35060.551
719.293;26548.717;   -8.088;34973.230
719.867;28808.904;  -10.888;36394.449
720.440;31032.391;  -11.938;36663.008
721.013;32016.469;  -12.818;35102.426
721.587;29798.842;  -10.298;33985.266
722.160;27599.324;  -10.048;33524.965
722.733;26375.273;  -12.108;32987.043
723.306;26594.541;  -10.818;33066.301
723.880;28671.473;   -8.908;33399.500
724.453;28349.535;   -9.878;33468.297
725.026;28916.090;  -11.188;33816.637
725.599;31377.006;  -11.678;32797.996
726.172;30358.766;   -9.618;33187.434
726.745;27817.814;   -8.258;35136.613
727.318;27379.672;  -12.978;35751.730
727.891;27217.133;  -12.148;35890.430
728.463;26709.725;   -8.968;34822.090
729.036;26582.574;  -10.188;32895.086
729.609;26372.785;  -11.788;31823.225
730.182;24131.016;  -11.788;31445.283
730.754;22742.920;  -10.268;32373.223
731.327;23286.248;   -9.998;33676.820
731.900;24646.951;  -12.228;33417.000
732.472;24208.096;  -13.848;31978.498
733.045;22973.834;   -8.698;30368.777
733.617;22636.377;  -10.607;30574.215
734.190;24798.375;  -11.507;31280.975
734.762;25711.859;  -13.647;31674.412
735.334;26967.973;   -9.767;31247.291
735.907;27178.059;   -9.897;29876.211
736.479;26829.787;  -11.637;29808.488
737.051;27931.734;   -9.567;30233.547
737.623;27326.758;   -8.187;31469.086
738.195;25953.559;  -11.187;31784.225
738.768;24595.094;  -12.337;32120.523
739.340;23022.453;  -12.227;32094.342
739.912;22496.881;  -11.057;31312.680
740.484;22647.900;  -10.207;31946.238
741.056;22238.260;  -10.047;32984.059
741.628;23138.383;  -13.627;33897.715
742.199;24062.430;   -7.177;33213.016
742.771;26405.088;  -10.797;31369.113
743.343;27338.646;  -11.997;31865.473
743.915;26914.996;  -12.867;32388.631
744.487;24347.773;   -7.617;31079.568
745.058;21686.453;   -9.557;30570.107
745.630;22573.313;   -9.877;29970.127
746.201;23844.914;  -14.177;29186.766
746.773;24226.857;   -9.237;28805.723
747.344;22449.279;   -9.847;29591.223
747.916;20805.678;  -11.657;31412.201
748.487;21834.611;  -10.587;32194.898
749.059;23560.742;   -8.707;32533.719
749.630;23936.020;  -10.537;32158.518
750.201;23282.547;  -11.687;30855.395
750.773;22080.518;  -11.647;28622.555
751.344;21989.838;   -7.147;28405.732
751.915;24036.730;   -9.757;28461.551
752.486;25026.920;  -12.427;27842.850
753.057;24098.234;  -12.227;27845.008
753.628;24085.750;  -10.417;27728.107
754.199;23493.512;  -11.767;27381.086
754.770;23292.779;  -11.187;25882.203
755.341;22385.240;  -10.507;25886.184
755.912;20835.262;   -9.387;26050.861
756.483;19346.086;  -10.647;26798.779
757.054;19681.969;  -11.837;27048.238
757.625;19802.617;  -12.716;26294.838
758.195;19551.451;   -9.666;26142.076
758.766;19585.902;   -8.656;26392.234
759.337;18985.072;  -12.856;26334.594
759.907;18792.508;  -13.366;27579.652
760.478;18789.748;   -8.576;28352.770
761.048;19845.904;  -10.526;27325.088
761.619;19808.594;  -11.116;26460.428
762.189;18404.041;  -12.136;26029.826
762.760;18118.709;   -9.456;26430.145
763.330;18647.936;   -7.136;26670.902
763.900;18837.730;  -11.786;26603.021
764.471;18224.191;  -11.546;25542.740
765.041;17316.168;   -8.096;24358.459
765.611;16758.650;   -8.876;23991.297
766.181;16891.244;  -12.196;24470.236
766.751;16539.813;  -11.636;24845.975
767.321;17351.891;  -10.156;24533.633
767.891;16657.926;  -11.766;24916.492
768.461;16944.322;  -14.936;24776.771
769.031;18115.828;  -12.356;24757.988
769.601;18626.834;   -7.526;24181.088
770.171;18244.566;  -10.766;23670.387
770.741;17434.053;  -13.176;22960.045
771.311;17083.770;  -10.616;22917.523
771.880;17618.510;   -9.576;23562.941
772.450;17380.514;  -10.336;24216.500
773.020;17048.297;  -13.516;24140.398
773.589;17586.479;  -13.466;24414.857
774.159;17313.691;   -8.686;23858.717
774.729;16000.699;   -9.476;22942.135
775.298;14209.328;  -13.666;22324.033
775.867;13866.848;  -11.716;21140.313
776.437;14027.963;   -9.906;20838.092
777.006;13377.587;  -12.166;20599.510
777.576;12861.250;  -12.356;20508.809
778.145;12858.768;  -11.646;20732.947
778.714;13337.345;   -8.226;21062.465
779.283;14262.604;   -9.556;20949.664
779.853;14757.399;  -14.116;20508.623
780.422;14114.397;  -11.506;20649.082
780.991;13647.417;   -9.556;21527.520
781.560;13464.315;   -9.095;22632.658
782.129;13461.005;  -12.135;23048.277
782.698;13296.922;  -10.865;23438.555
783.267;12847.707;   -9.335;23267.734
783.836;13059.558;  -11.045;22415.133
784.404;13745.265;  -13.865;20443.152
784.973;12968.212;  -13.095;19699.150
785.542;11660.428;  -11.575;19763.828
786.111;11139.339;   -9.705;20341.408
786.679;11941.688;  -12.105;20207.967
787.248;12135.691;  -12.455;19516.465
787.817;11657.870;  -11.535;18900.363
788.385;11730.808;   -9.765;17879.121
788.954;11941.541;  -14.005;17658.301
789.522;11460.561;  -11.955;17788.879
790.090;11703.682;  -10.135;18118.277
790.659;12494.848;  -10.975;18338.736
791.227;12256.396;  -13.375;18508.615
791.795;11597.956;  -12.375;17898.254
792.364;11157.799;  -10.725;17295.133
792.932;11311.839;   -9.715;16822.051
793.500;11542.582;  -12.675;17040.148
794.068;11319.240;  -13.495;17179.787
794.636;10012.707;  -10.885;16664.246
795.204; 8957.769;  -11.045;16524.545
795.772; 9820.167;  -13.175;17274.564
796.340;11035.854;  -12.445;17891.002
796.908;10740.548;   -9.735;17648.561
797.476;11124.171;   -9.815;17064.080
798.044;11850.939;  -13.985;16672.777
798.612;11548.815;  -13.115;17023.996
799.180;10253.456;  -10.185;16561.615
799.747; 9360.185;   -9.055;15962.773
800.315; 8882.149;  -12.385;15296.992
800.883; 9193.367;  -15.035;14801.771
801.450; 9424.679;  -10.365;14534.430
802.018; 9472.631;   -9.855;14173.248
802.585; 9594.690;  -11.905;14029.547
803.153; 9214.700;  -11.585;13836.846
803.720; 8686.476;   -9.095;13567.324
804.287; 8823.615;   -9.135;13360.622
804.855; 9162.170;  -11.604;13681.981
805.422; 9281.982;  -11.794;13536.560
805.989; 9110.681;  -10.734;13355.958
806.556; 8593.444;  -10.444;13747.896
807.124; 8456.022;  -12.764;13987.376
807.691; 9004.127;  -12.964;14038.674
808.258; 9312.237;  -11.134;14120.152
808.825; 9527.603;   -9.854;13860.111
809.392; 9174.588;  -10.504;13268.790
809.959; 8645.735;  -13.054;12680.389
810.526; 8487.127;   -8.294;12427.308
811.093; 8182.452;   -8.394;12030.105
811.659; 7482.731;  -12.304;11653.664
812.226; 7313.356;  -13.944;11637.183
812.793; 7799.931;  -10.484;11611.521
813.360; 7854.450;  -10.144;11885.181
813.926; 7173.468;  -11.684;12770.539
814.493; 6617.997;  -13.644;12677.638
815.060; 6514.851;   -9.724;11974.336
815.626; 6828.491;   -9.854;11594.715
816.193; 6781.467;  -13.254;11579.474
816.759; 6687.014;  -13.204;11666.972
817.325; 6456.441;   -9.434;11325.530
817.892; 6159.194;  -10.134;11105.369
818.458; 6122.133;  -13.474;10843.928
819.024; 6143.840;  -11.854;10714.406
819.591; 6496.926;  -10.244;10469.165
820.157; 6678.243;  -10.704;10235.523
820.723; 7004.249;  -12.324;10847.563
821.289; 7391.353;   -9.444;11040.980
821.855; 7345.431;   -8.374;10357.100
822.421; 6862.173;  -10.234; 9978.918
822.987; 6614.820;  -13.294; 9754.177
823.553; 6481.401;  -10.884;10065.755
824.119; 6089.842;   -8.884;10036.294
824.685; 5940.849;   -6.784;10029.192
825.251; 5887.113;  -12.004;10199.230
825.816; 6016.766;  -11.474; 9820.189
826.382; 5795.146;   -9.174; 9297.248
826.948; 5536.025;   -9.214; 9381.347
827.513; 5321.898;  -10.774; 9450.726
828.079; 5251.614;  -11.924; 9472.444
828.645; 5274.531;  -10.543; 9292.643
829.210; 5414.429;  -10.533; 9065.341
829.776; 5426.794;  -10.753; 9132.620
830.341; 5420.350;  -10.173; 9092.878
830.906; 5589.895;  -10.743; 9078.557
831.472; 5435.928;  -11.113; 8534.535
832.037; 4890.032;  -10.603; 8677.874
832.602; 4829.413;  -13.323; 8628.692
833.167; 5236.485;  -10.823; 8879.031
833.733; 5201.610;  -10.113; 9189.790
834.298; 4901.758;  -13.583; 9052.608
834.863; 4750.177;  -12.703; 8895.087
835.428; 4600.659;  -10.523; 8824.266
835.993; 4525.591;   -6.963; 8845.385
836.558; 4621.935;  -10.763; 8888.563
837.123; 4791.566;   -9.903; 8966.582
837.688; 4716.916;   -9.913; 8617.860
838.253; 4602.537;  -10.283; 8590.699
838.817; 4752.147;  -12.963; 8443.797
839.382; 4891.633;  -14.243; 8799.356
839.947; 4733.366;  -10.733; 8810.595
840.511; 4808.913;   -9.383; 8796.394
841.076; 4833.398;  -12.563; 8347.231
841.641; 4630.726;  -12.953; 8224.330
842.205; 4343.125;   -7.043; 8223.349
842.770; 4294.474;   -8.163; 8622.107
843.334; 4329.782;  -12.503; 8410.386
843.898; 4309.586;  -11.693; 8337.465
844.463; 4208.211;  -10.203; 8506.283
845.027; 4101.509;   -9.533; 8280.962
845.591; 4137.148;  -13.443; 8231.141
846.156; 4028.975;  -13.143; 7969.179
846.720; 3808.889;   -9.433; 7768.278
847.284; 3524.383;  -11.033; 7630.957
847.848; 3388.875;  -10.403; 7472.395
848.412; 3403.610;  -11.553; 7437.394
848.976; 3583.189;   -8.393; 7674.592
849.540; 3637.110;   -8.713; 7836.011
850.104; 3641.406;  -12.463; 7913.669
850.668; 3782.418;  -12.973; 7694.508
851.232; 3811.836;  -10.793; 7756.887
851.796; 3708.688;  -10.662; 7926.545
852.359; 3723.264;  -13.082; 7827.844
852.923; 3472.014;  -12.192; 7641.163
853.487; 3397.784;  -11.912; 7342.501
854.050; 3554.427;  -10.892; 7042.820
854.614; 3507.798;  -13.992; 7151.338
855.177; 3385.646;  -11.732; 7105.077
855.741; 3312.029;   -8.962; 6989.675
856.304; 3193.887;   -9.442; 6596.634
856.868; 2945.727;  -14.192; 6356.272
857.431; 2723.587;  -12.702; 6468.571
857.995; 2774.593;   -9.942; 6373.210
858.558; 2824.911;   -9.112; 6324.448
859.121; 2644.439;  -12.932; 6408.327
859.684; 2579.972;  -13.442; 6347.886
860.247; 3002.453;  -10.632; 6321.264
860.810; 3336.937;  -11.272; 6301.903
861.374; 3333.280;   -9.832; 6607.881
861.937; 3287.027;  -11.762; 6408.200
862.500; 3135.996;   -9.722; 6572.639
863.062; 2826.831;  -10.512; 6387.297
863.625; 2729.080;  -11.232; 6190.836
864.188; 2738.481;  -14.112; 5807.254
864.751; 2767.739;  -11.302; 5682.413
865.314; 2907.330;  -10.112; 5547.492
865.876; 2956.364;  -12.182; 5500.150
866.439; 2876.652;  -10.722; 5415.909
867.002; 2724.605;   -9.252; 5501.567
867.564; 2618.632;   -9.572; 5413.946
868.127; 2483.716;  -13.142; 5160.325
868.689; 2198.437;  -12.902; 5133.183
869.252; 2056.254;   -9.732; 5252.382
869.814; 2063.066;   -9.432; 5297.141
870.377; 2178.097;  -11.552; 5390.919
870.939; 2173.346;   -9.052; 5599.898
871.501; 2087.879;  -10.982; 5248.336
872.063; 2100.237;  -12.292; 4854.235
872.626; 2119.663;  -14.912; 4817.074
873.188; 2194.098;  -13.112; 4987.732
873.750; 2246.211;  -13.442; 4868.651
874.312; 2441.876;   -9.402; 4779.330
874.874; 2713.310;  -11.062; 4866.348
875.436; 2499.789;  -13.931; 4718.887
875.998; 1897.030;   -9.561; 4660.005
876.560; 1415.475;  -11.321; 4462.964
877.122; 1104.175;  -12.221; 4145.042
877.683;  936.982;  -12.191; 4056.481
878.245; 1004.950;  -12.101; 3950.740
878.807; 1201.127;   -8.971; 4058.958
879.369; 1342.660;  -12.071; 3954.677
879.930; 1370.098;  -14.621; 3941.495
880.492; 1289.059;  -10.311; 4067.014
881.053; 1217.074;  -10.901; 3859.633
881.615; 1249.099;  -14.411; 3776.071
882.176; 1302.610;  -13.761; 3734.750
882.738; 1334.535;   -9.181; 3678.489
883.299; 1311.382;  -11.791; 3405.407
883.860; 1251.562;  -13.121; 3351.106
884.422; 1170.060;  -11.211; 3394.044
884.983; 1119.996;  -10.091; 3166.443
885.544; 1109.641;   -8.461; 3189.802
886.105; 1054.811;  -12.361; 3160.360
886.666;  983.613;  -14.141; 3093.059
887.227;  963.653;  -11.361; 2941.957
887.788;  988.034;  -11.401; 2974.836
888.349;  948.071;  -13.791; 2721.214
888.910;  853.111;  -13.191; 2696.493
889.471;  755.104;   -9.881; 2560.172
890.032;  691.864;   -9.881; 2558.190
890.593;  695.445;  -10.371; 2567.669
891.153;  691.249;  -13.301; 2460.307
891.714;  627.744;  -11.431; 2372.046
892.275;  582.755;  -11.291; 2309.505
892.835;  575.206;  -11.471; 2382.543
893.396;  568.397;  -11.541; 2295.502
893.956;  559.701;  -11.181; 2162.420
894.517;  542.866;  -11.741; 2125.439
895.077;  493.243;  -11.671; 2086.978
895.638;  442.814;  -11.311; 2126.316
896.198;  424.816;   -9.831; 1838.275
896.758;  427.064;   -8.421; 1892.813
897.319;  421.166;  -12.351; 1792.232
897.879;  402.786;  -13.511; 1762.751
898.439;  377.197;  -12.001; 1661.149
898.999;  354.172;  -10.180; 1781.468
899.559;  340.070;  -12.030; 1703.347
900.119;  330.714;  -15.710; 1537.525
900.679;  309.986;   -8.900; 1638.384
901.239;  283.997;   -8.340; 1527.902
901.799;  271.825;  -13.910; 1456.441
902.359;  262.370;  -13.460; 1357.140
902.919;  258.865;  -11.490; 1331.118
903.479;  256.462;  -12.110; 1317.257
904.038;  248.613;  -11.720; 1262.595
904.598;  231.817;  -13.610; 1152.034
905.158;  221.067;  -11.040; 1240.893
905.717;  214.454;  -10.900; 1233.691
906.277;  210.096;  -15.080; 1217.330
906.836;  207.117;  -13.380; 1222.408
907.396;  205.294;  -10.780; 1193.047
907.955;  198.008;   -8.500; 1182.526
908.515;  191.208;  -12.760; 1099.364
909.074;  187.706;  -11.900; 1092.863
909.633;  184.480;   -8.950; 1069.121
910.192;  182.535;   -8.770; 1196.460
910.752;  177.078;  -12.390; 1029.960
911.311;  173.617;  -13.680; 1009.780
911.870;  168.317;  -12.370;  971.460
912.429;  165.036;  -10.900; 1094.080
912.988;  162.721;  -11.690; 1081.060
913.547;  160.050;  -13.240;  940.380
914.106;  158.678;  -11.990;  999.420
914.665;  159.711;   -9.990;  984.020
915.224;  157.793;  -12.880; 1035.760
915.782;  155.698;  -12.350;  922.560
916.341;  155.358;   -9.110; 1049.840
916.900;  150.941;   -9.270;  925.260
917.458;  147.342;  -13.240;  884.220
918.017;  143.754;  -13.550;  942.600
918.576;  142.954;  -12.320;  904.440
919.134;  142.523;  -11.490;  837.980
919.693;  142.845;  -13.670;  893.060
920.251;  140.789;  -15.470;  876.500
920.809;  140.384;  -11.290;  839.580
921.368;  141.495;  -10.210;  885.360
921.926;  141.121;  -12.140;  842.940
922.484;  140.374;  -13.080;  903.360
923.042;  140.732;  -11.720;  880.340
923.601;  142.288;   -7.480;  998.680
924.159;  141.790;  -11.570;  935.560
924.717;  140.490;  -13.840;  841.080
925.275;  142.694;  -10.640;  903.240
925.833;  140.725;  -11.540;  779.320
926.391;  141.188;  -12.960;  938.380
926.949;  141.142;  -14.130;  857.680
927.506;  141.791;  -11.750;  903.500
928.064;  141.130;  -10.250;  877.580
928.622;  139.563;  -13.030;  880.100
929.180;  141.426;  -13.400;  814.180
929.737;  142.416;  -10.700;  808.540
930.295;  144.190;  -10.070;  928.480
930.853;  142.719;  -11.960;  849.100
931.410;  141.597;  -13.120;  821.120
931.968;  142.919;  -10.770;  940.660
932.525;  144.719;  -10.680;  909.380
933.082;  147.703;  -13.130;  811.440
933.640;  152.572;  -13.210;  925.900
934.197;  153.324;  -11.060;  886.360
934.754;  153.564;   -9.580;  897.780
935.312;  155.001;  -14.000;  863.340
935.869;  158.273;  -10.710; 1012.980
936.426;  156.394;   -9.860;  872.800
936.983;  155.380;   -9.710;  889.020
937.540;  153.216;  -13.990;  838.280
938.097;  153.149;  -14.040;  940.120
938.654;  155.492;  -10.310;  898.860
939.211;  156.982;  -10.560;  952.480
939.768;  154.974;  -13.900;  915.420
940.324;  156.334;  -14.760;  904.200
940.881;  161.341;  -10.370;  878.500
941.438;  167.485;   -8.260; 1021.200
941.995;  168.120;  -12.540;  992.560
942.551;  166.541;  -14.670;  875.620
943.108;  165.517;  -10.450;  937.920
943.664;  166.947;  -10.750;  869.340
944.221;  171.041;  -11.550; 1088.140
944.777;  173.998;  -14.770;  869.680
945.334;  173.948;  -12.820;  884.840
945.890;  171.355;  -10.130;  946.480
946.446;  169.277;  -13.470;  947.020
947.003;  168.781;  -12.120;  964.940
947.559;  168.177;   -9.980; 1063.040
948.115;  165.377;   -9.080; 1026.540
948.671;  162.786;  -10.830;  967.300
949.227;  161.165;  -12.440;  859.560
949.783;  161.333;  -12.910;  858.900
950.339;  162.839;  -10.270;  991.000
950.895;  164.686;  -13.630; 1023.840
951.451;  163.446;  -15.100;  925.280
952.007;  163.121;  -11.330;  998.540
952.563;  160.900;  -10.580;  937.780
953.118;  155.573;  -13.440;  904.940
953.674;  153.649;  -12.710;  935.780
954.230;  155.122;  -10.350;  949.640
954.785;  159.502;   -9.190;  936.640
955.341;  160.558;  -11.200;  998.160
955.897;  156.933;  -16.560;  834.660
956.452;  154.784;  -12.570;  953.840
957.008;  153.525;   -7.970; 1083.640
957.563;  152.195;  -11.940; 1009.540
958.118;  149.812;  -13.450;  877.700
958.674;  150.515;  -12.030;  946.780
959.229;  149.785;   -9.410; 1013.980
959.784;  147.260;  -12.000;  832.400
960.339;  143.988;  -14.780; 1001.280
960.894;  137.857;   -9.860;  963.760
961.449;  132.894;   -9.970;  859.960
962.004;  131.518;  -10.900; 1212.840
962.559;  126.555;  -13.150;  860.140
963.114;  123.029;  -13.740;  742.480
963.669;  125.503;   -9.820;  915.500
964.224;  125.326;  -13.890;  874.340
964.779;  124.886;  -12.600;  828.420
965.334;  125.649;  -10.950; 1017.860
965.888;  123.102;  -11.170;  875.360
966.443;  124.118;  -12.540;  972.380
966.998;  124.307;  -15.780;  819.460
967.552;  124.103;   -9.760;  908.380
968.107;  119.365;   -9.060;  868.300
968.661;  117.174;  -11.950;  922.440
969.216;  117.435;  -12.800;  856.280
969.770;  116.312;  -11.210;  917.200
970.324;  114.202;  -11.610;  923.140
970.879;  112.252;  -11.370;  947.180
971.433;  110.706;  -12.540;  952.720
971.987;  109.408;  -11.320;  895.340
972.541;  109.353;  -10.720;  917.100
973.095;  109.868;   -9.680; 1009.460
973.649;  108.612;  -11.440;  809.480
974.203;  108.942;  -11.210;  829.040
974.757;  108.930;  -10.240;  855.220
975.311;  109.671;  -13.720;  872.600
975.865;  110.059;  -13.770;  881.820
976.419;  109.085;  -11.690;  857.400
976.973;  108.181;   -9.510;  849.620
977.526;  108.370;  -12.620;  949.920
978.080;  104.752;  -12.010;  796.780
978.634;  104.176;  -10.170;  921.320
979.187;  100.284;   -9.020;  905.400
979.741;   98.839;   -9.820; 1018.380
980.294;   94.553;  -14.870;  789.160
980.848;   91.181;  -12.380;  717.220
981.401;   90.542;  -10.350;  816.540
981.955;   90.951;  -13.720;  844.300
982.508;   87.550;  -11.490;  746.340
983.061;   86.833;  -10.000;  915.260
983.615;   86.436;  -11.480;  798.800
984.168;   85.962;  -13.220;  770.080
984.721;   85.903;  -13.960;  880.760
985.274;   83.356;  -10.870;  867.500
985.827;   81.872;   -9.790;  834.220
986.380;   80.785;  -13.120;  721.340
986.933;   81.494;  -12.450;  864.800
987.486;   81.449;  -10.210;  861.920
988.039;   80.625;   -8.430;  863.100
988.591;   78.211;  -10.520;  893.260
989.144;   73.766;  -14.860;  737.260
989.697;   72.127;  -13.080;  758.740
990.250;   71.253;  -10.150;  858.100
990.802;   69.153;  -13.430;  755.860
991.355;   69.392;  -12.750;  974.880
991.907;   66.545;  -12.040;  864.320
992.460;   63.697;  -11.330;  753.760
993.012;   62.411;  -13.610;  749.540
993.565;   61.209;  -13.460;  711.360
994.117;   62.872;   -9.360;  950.780
994.669;   60.989;  -11.300;  701.320
995.221;   60.385;  -13.540;  791.920
995.774;   60.073;  -13.430;  787.580
996.326;   57.760;  -12.520;  740.220
996.878;   58.736;  -10.950;  838.420
997.430;   55.926;  -14.300;  699.860
997.982;   55.544;  -13.760;  750.140
998.534;   54.734;  -11.530;  739.060
999.086;   53.380;  -10.310;  738.220
999.638;   51.853;  -12.530;  661.380
1000.190;   50.790;  -11.840;  699.320
1000.741;   51.017;  -10.260;  742.700
1001.293;   50.383;   -8.860;  686.020
1001.845;   49.798;  -13.700;  676.640
1002.396;   50.770;  -12.100;  743.400
1002.948;   49.543;  -12.760;  737.400
1003.500;   48.519;  -10.380;  723.780
1004.051;   48.114;  -11.900;  907.580
1004.603;   47.664;  -12.250;  791.820
1005.154;   43.641;  -13.210;  608.980
1005.705;   42.776;  -10.950;  723.960
1006.257;   42.541;  -13.880;  707.220
1006.808;   41.672;  -12.840;  685.460
1007.359;   41.586;  -10.570;  763.240
1007.910;   40.687;   -9.620;  646.640
1008.461;   39.687;  -13.630;  732.940
1009.013;   39.013;  -17.200;  588.340
1009.564;   40.283;  -10.200;  793.520
1010.115;   38.652;  -12.570;  597.040
1010.665;   38.494;  -15.150;  602.160
1011.216;   39.020;  -14.480;  667.920
1011.767;   37.469;  -11.340;  697.920
1012.318;   37.984;   -9.780;  736.980
1012.869;   36.843;  -12.380;  679.000
1013.419;   36.316;  -15.560;  603.120
1013.970;   36.392;  -11.010;  666.640
1014.521;   36.341;  -11.610;  620.620
1015.071;   35.446;  -13.450;  670.380
1015.622;   35.677;  -13.870;  635.460
1016.172;   34.930;  -11.610;  596.820
1016.723;   35.011;  -12.120;  614.380
1017.273;   34.322;  -13.620;  604.160
1017.823;   35.174;  -14.140;  650.340
1018.374;   34.299;  -12.800;  611.760
1018.924;   33.701;  -12.340;  716.880
1019.474;   34.482;  -11.410;  718.880
1020.024;   32.592;  -14.770;  657.580
1020.574;   33.873;   -9.780;  726.160
1021.124;   34.483;   -8.560;  673.580
1021.674;   32.842;  -15.190;  559.120
1022.224;   33.837;  -13.530;  708.940
1022.774;   32.977;  -13.280;  668.820
1023.324;   33.669;  -10.690;  753.520
1023.874;   34.621;  -10.240;  875.760
1024.423;   31.984;  -12.540;  613.700
1024.973;   31.161;  -10.010;  610.760
1025.523;   30.439;  -10.550;  620.960
1026.072;   30.962;  -13.560;  606.420
1026.622;   30.636;  -15.120;  675.740
1027.172;   31.316;  -11.260;  715.660
1027.721;   29.953;  -11.410;  601.220
1028.270;   29.809;  -13.530;  663.400
1028.820;   29.691;  -13.680;  638.080
1029.369;   29.781;  -13.520;  612.700
1029.918;   30.384;  -10.980;  649.840
1030.468;   29.854;  -13.530;  564.780
1031.017;   30.189;  -13.170;  634.800
1031.566;   29.382;  -12.200;  608.900
1032.115;   29.623;   -9.960;  694.500
1032.664;   27.760;  -13.210;  596.480
1033.213;   29.399;  -12.500;  735.420
1033.762;   28.312;  -11.910;  635.620
1034.311;   28.254;   -9.640;  677.220
1034.860;   28.512;  -13.310;  691.000
1035.408;   28.279;  -11.830;  722.720
1035.957;   28.248;  -12.000;  719.540
1036.506;   26.555;  -11.690;  530.800
1037.055;   28.444;  -10.990;  844.320
1037.603;   27.530;  -15.120;  664.000
1038.152;   26.068;  -12.450;  534.760
1038.700;   26.297;  -10.560;  585.740
1039.249;   25.043;  -11.080;  681.220
1039.797;   25.981;  -12.540;  633.360
1040.345;   26.081;  -11.920;  705.420
1040.894;   25.383;  -11.410;  625.300
1041.442;   25.356;  -14.320;  632.200
1041.990;   25.033;  -16.240;  559.160
1042.538;   24.209;  -11.680;  536.180
1043.087;   24.338;  -10.760;  570.860
1043.635;   25.728;  -11.850;  670.500
1044.183;   24.517;  -15.480;  586.400
1044.731;   24.687;  -11.770;  576.000
1045.279;   23.761;  -13.090;  674.920
1045.827;   26.593;  -12.440;  892.400
1046.374;   23.472;  -13.840;  515.420
1046.922;   22.569;  -13.220;  590.580
1047.470;   24.643;  -10.230;  691.300
1048.018;   24.194;  -14.590;  647.960
1048.565;   24.841;  -12.050;  708.600
1049.113;   22.833;  -11.650;  557.000
1049.660;   23.232;  -10.510;  629.660
1050.208;   23.011;  -13.310;  675.640
1050.755;   22.543;  -15.900;  606.580
1051.303;   23.067;  -11.430;  686.820
1051.850;   22.433;   -8.480;  635.120
1052.397;   20.614;  -15.010;  473.960
1052.945;   21.910;  -13.960;  617.760
1053.492;   22.995;  -13.150;  741.840
1054.039;   22.586;   -9.630;  720.180
1054.586;   22.066;  -13.680;  557.240
1055.133;   22.204;  -14.570;  693.140
1055.680;   22.725;  -13.820;  646.620
1056.227;   21.656;  -11.730;  542.780
1056.774;   22.693;  -12.480;  794.980
1057.321;   20.503;  -13.930;  523.260
1057.868;   21.020;  -11.690;  651.320
1058.415;   21.277;   -9.520;  651.980
1058.961;   20.778;  -13.160;  678.940
1059.508;   20.876;  -12.920;  643.820
1060.055;   20.176;  -11.920;  581.780
1060.601;   20.826;  -11.500;  624.300
1061.148;   20.364;  -14.330;  616.820
1061.694;   20.150;  -16.870;  592.580
1062.241;   20.160;  -10.330;  596.320
1062.787;   20.444;  -10.620;  663.140
1063.334;   21.687;  -10.110;  808.560
1063.880;   20.000;  -13.400;  668.360
1064.426;   19.725;  -10.680;  706.820
1064.972;   18.997;   -9.920;  601.340
1065.518;   18.286;  -10.980;  566.640
1066.065;   19.316;  -14.890;  624.460
1066.611;   18.110;  -12.870;  598.800
1067.157;   19.093;  -12.950;  641.860
1067.703;   18.919;  -13.540;  668.480
1068.249;   18.614;  -13.540;  605.220
1068.794;   17.875;  -12.600;  626.880
1069.340;   17.780;  -10.620;  578.960
1069.886;   18.446;  -12.830;  590.700
1070.432;   16.764;  -14.870;  541.720
1070.977;   16.967;  -11.980;  601.080
1071.523;   17.734;   -8.200;  573.060
1072.068;   16.873;  -12.330;  582.000
1072.614;   16.904;  -16.370;  527.760
1073.160;   17.202;  -11.100;  687.040
1073.705;   16.166;  -10.480;  572.520
1074.250;   16.018;  -14.520;  559.900
1074.796;   17.930;  -11.460;  655.160
1075.341;   17.801;  -11.950;  664.100
1075.886;   16.800;  -11.460;  594.240
1076.431;   16.517;  -13.770;  649.880
1076.976;   16.372;  -12.680;  639.220
1077.521;   15.876;  -13.170;  583.080
1078.067;   15.619;  -10.860;  579.400
1078.612;   15.885;  -13.920;  661.620
1079.156;   15.607;  -13.880;  601.540
1079.701;   16.493;  -13.120;  693.260
1080.246;   16.756;   -9.940;  696.300
1080.791;   15.888;  -14.740;  625.020
1081.336;   16.327;  -13.750;  659.320
1081.880;   15.822;  -13.400;  649.680
1082.425;   14.187;  -12.220;  573.480
1082.970;   16.845;  -11.610;  717.040
1083.514;   15.336;  -13.580;  597.000
1084.059;   13.425;  -12.810;  586.720
1084.603;   14.407;  -12.320;  565.840
1085.147;   14.638;  -13.190;  645.220
1085.692;   15.837;  -12.480;  716.800
1086.236;   13.430;  -13.020;  503.140
1086.780;   16.080;   -9.190;  751.440
1087.325;   14.657;  -12.480;  654.620
1087.869;   14.336;  -12.450;  610.700
1088.413;   14.511;  -12.240;  705.040
1088.957;   13.251;   -9.020;  543.400
1089.501;   15.040;  -10.320;  766.640
1090.045;   14.466;  -12.720;  726.480
1090.589;   12.109;  -13.690;  569.920
1091.133;   13.369;  -10.020;  673.340
1091.676;   13.118;  -12.330;  591.940
1092.220;   13.007;  -14.970;  600.920
1092.764;   13.495;  -12.430;  706.960
1093.307;   13.800;   -9.800;  673.780
1093.851;   12.310;  -14.970;  556.540
1094.395;   13.235;  -15.310;  683.140
1094.938;   11.734;  -10.370;  632.520
1095.482;   12.038;  -11.050;  559.800
1096.025;   13.182;  -11.840;  710.880
1096.568;   13.528;  -12.840;  779.280
1097.112;   10.674;  -14.700;  508.180
1097.655;   12.286;   -8.720;  603.000
1098.198;   10.737;  -13.610;  600.180
1098.741;   11.414;  -13.350;  612.860
1099.285;   12.106;  -11.230;  657.300
1099.828;   10.580;  -11.840;  439.400
1100.371;   11.407;  -10.840;  608.160
1100.914;   11.452;  -14.190;  682.660
1101.457;   11.848;  -11.240;  679.900
1101.999;   10.451;  -11.270;  584.680
1102.542;   11.148;  -11.480;  641.440
1103.085;   10.745;  -11.750;  658.500
1103.628;   11.766;  -11.400;  762.060
1104.170;   10.568;  -10.490;  588.280
1104.713;   10.432;  -10.600;  646.700
1105.256;   10.436;  -14.360;  557.440
1105.798;    9.403;  -13.210;  499.980
1106.341;   11.654;  -10.270;  728.900
1106.883;    9.296;  -12.200;  521.340
1107.425;   10.686;  -13.110;  668.180
1107.968;   10.049;  -12.840;  612.380
1108.510;   10.944;   -6.480;  684.960
1109.052;    8.912;  -13.940;  612.620
1109.594;    8.970;  -13.690;  554.440
1110.136;    9.863;  -11.880;  643.220
1110.679;    8.796;   -9.500;  633.080
1111.221;    9.848;  -14.160;  604.460
1111.763;    8.495;  -13.980;  559.220
1112.304;    8.457;  -13.880;  547.140
1112.846;    9.150;  -12.210;  666.240
1113.388;   12.072;  -11.390;  942.180
1113.930;    9.328;  -14.540;  694.200
1114.472;    8.560;  -12.640;  606.540
1115.013;    6.835;  -11.620;  551.280
1115.555;    7.027;  -13.640;  587.100
1116.097;    7.358;  -15.380;  579.480
1116.638;    7.637;  -12.640;  684.600
1117.180;    8.666;   -9.850;  667.740
1117.721;    7.381;  -13.690;  568.580
1118.262;    8.886;  -12.680;  677.960
1118.804;    8.694;  -12.530;  637.340
1119.345;    6.741;  -11.690;  578.400
1119.886;    8.249;  -13.380;  704.040
1120.427;    7.368;  -14.070;  589.020
1120.969;    6.152;  -13.500;  597.920
1121.510;    6.453;  -11.480;  563.060
1122.051;    7.109;  -12.830;  723.580
1122.592;    6.478;  -14.290;  655.420
1123.133;    5.448;  -12.400;  547.940
1123.673;    7.388;  -10.130;  706.480
1124.214;    6.289;  -12.930;  612.460
1124.755;    7.238;  -14.380;  639.460
1125.296;    6.579;  -14.000;  627.320
1125.836;    7.251;  -10.070;  691.500
1126.377;    5.824;  -12.640;  599.660
1126.918;    7.501;  -12.960;  614.980
1127.458;    5.829;  -13.350;  622.220
1127.999;    6.334;  -10.750;  656.980
1128.539;    6.808;  -12.350;  694.240
1129.079;    5.661;  -14.860;  632.720
1129.620;    4.947;  -13.840;  558.100
1130.160;    5.021;  -12.330;  539.480
1130.700;    6.140;  -14.530;  640.840
1131.240;    6.228;  -12.530;  643.700
1131.781;    5.157;  -14.450;  619.680
1132.321;    6.042;   -9.790;  599.120
1132.861;    3.655;  -14.860;  564.200
1133.401;    4.746;  -14.290;  593.940
1133.941;    5.163;  -11.750;  626.280
1134.481;    4.356;   -9.920;  597.580
1135.020;    3.861;  -12.290;  609.160
1135.560;    5.011;  -11.650;  674.940
1136.100;    3.865;  -16.270;  501.160
1136.640;    3.944;  -10.890;  510.480
1137.179;    4.017;  -14.180;  537.960
1137.719;    4.530;  -16.250;  605.400
1138.258;    4.118;  -14.230;  587.360
1138.798;    4.716;   -9.090;  663.780
1139.337;    2.780;  -15.130;  482.840
1139.877;    5.216;  -13.680;  642.360
1140.416;    5.749;  -11.320;  878.060
1140.955;    2.442;  -10.860;  535.380
1141.494;    3.529;  -12.920;  669.280
1142.034;    4.049;  -13.930;  583.520
1142.573;    3.989;  -11.440;  646.280
1143.112;    3.161;  -12.000;  553.480
1143.651;    3.148;  -13.670;  536.480
1144.190;    4.342;  -12.730;  691.640
1144.729;    3.289;  -14.560;  607.420
1145.267;    4.363;  -11.830;  584.900
1145.806;    4.027;  -12.230;  637.040
1146.345;    3.277;  -14.130;  635.020
1146.884;    2.517;  -11.590;  622.500
1147.422;    2.342;  -12.550;  533.060
1147.961;    4.219;  -11.180;  708.460
1148.500;    3.167;  -11.510;  669.720
1149.038;    3.538;  -11.640;  632.500
1149.577;    2.741;  -10.130;  698.640
1150.115;    0.892;  -13.970;  452.280
1150.653;    2.255;  -14.520;  607.340
1151.192;    3.124;  -12.810;  552.920
1151.730;    2.188;   -9.100;  652.560
1152.268;    2.059;  -12.220;  589.520
1152.806;    1.544;  -14.140;  571.180
1153.344;    0.895;  -12.350;  577.640
1153.882;    2.400;   -8.980;  600.060
1154.421;    0.575;  -15.190;  470.620
1154.958;    1.788;  -15.210;  595.240
1155.496;    2.115;  -12.850;  645.280
1156.034;    2.353;   -9.940;  721.880
1156.572;    2.286;  -13.570;  667.060
1157.110;    0.651;  -14.590;  473.940
1157.647;    2.317;  -13.030;  676.960
1158.185;    1.434;  -12.140;  564.320
1158.723;    0.246;  -14.390;  509.200
1159.260;    1.811;  -14.090;  701.700
1159.798;    1.994;  -11.920;  658.160
1160.335;    0.156;  -11.110;  631.820

