
Integration time [ms]:   3.276
Averaging Nr. [scans]: 1000
Smoothing Nr. [pixels]: 0
Data measured with spectrometer [name]: 7414430SP
Wave   ;Sample   ;Dark     ;Reference
[nm]   ;[counts] ;[counts] ;[counts] 

288.544;  158.626;    7.793;  793.890
289.143;  161.294;    7.462;  681.602
289.742;  161.926;    8.602;  828.814
290.341;  149.710;    1.321;  789.841
290.940;  140.629;   -0.709;  730.702
291.538;  140.135;    0.881;  881.108
292.137;  140.717;    0.122;  792.581
292.736;  143.392;   -1.929;  975.101
293.335;  138.763;   -8.229;  735.086
293.934;  139.960;   -5.279;  781.677
294.532;  141.123;   -1.369; 1031.958
295.131;  127.878;   -7.641;  834.394
295.730;  127.090;   -8.420;  809.588
296.328;  123.764;   -5.611;  783.442
296.927;  123.884;   -5.781;  779.652
297.525;  125.281;   -6.361;  781.236
298.124;  117.015;  -11.382;  654.009
298.722;  120.435;   -7.641;  761.933
299.321;  117.611;   -6.811;  708.597
299.919;  114.103;   -6.991;  751.918
300.518;  110.883;  -10.362;  689.338
301.116;  113.445;   -9.581;  691.381
301.715;  113.979;   -4.891;  730.222
302.313;  112.799;   -8.801;  704.943
302.911;  107.547;   -8.522;  733.830
303.509;  112.055;   -6.171;  925.627
304.108;  109.956;   -7.311;  760.383
304.706;  110.366;   -8.321;  801.664
305.304;  104.284;  -10.222;  796.707
305.902;  109.593;   -6.021;  784.484
306.500;  104.535;   -4.971;  728.200
307.098;  103.819;   -7.061;  746.560
307.696;  102.029;   -8.801;  780.432
308.294;  101.267;   -6.411;  731.359
308.892;  103.495;   -2.901;  759.769
309.490;   99.639;   -5.041;  712.161
310.088;   98.645;   -5.002;  788.444
310.686;  101.941;   -2.041;  821.749
311.284;   98.270;   -2.351;  766.040
311.882;   96.090;   -4.422;  731.225
312.480;   92.767;   -4.192;  697.167
313.078;   93.563;   -1.172;  808.331
313.675;   94.688;   -2.601;  691.600
314.273;   89.400;   -1.312;  797.837
314.871;   89.991;   -3.942;  589.829
315.468;   86.228;   -2.802;  652.090
316.066;   89.547;   -0.701;  694.427
316.664;   83.100;   -4.362;  656.351
317.261;   86.512;   -2.872;  910.128
317.859;   81.573;   -2.022;  768.735
318.456;   82.837;   -0.531;  830.096
319.054;   78.851;   -3.912;  787.828
319.651;   78.256;   -4.752;  759.928
320.249;   75.748;   -2.602;  810.188
320.846;   72.649;   -0.821;  714.286
321.443;   71.838;   -4.642;  832.135
322.041;   69.155;   -5.002;  812.315
322.638;   66.069;   -3.982;  701.456
323.235;   67.396;   -3.411;  665.683
323.833;   63.949;   -7.361;  740.354
324.430;   59.502;   -8.611;  615.900
325.027;   60.428;   -4.061;  876.855
325.624;   60.482;   -4.031;  644.532
326.221;   57.796;   -7.481;  689.717
326.818;   57.839;   -5.281;  818.332
327.415;   59.312;   -7.460;  748.828
328.012;   59.058;   -5.510;  690.585
328.609;   58.014;   -7.880;  731.389
329.206;   57.213;   -8.331;  778.621
329.803;   55.935;   -5.121;  737.841
330.400;   58.261;   -4.510;  704.260
330.997;   60.150;   -6.441;  817.147
331.594;   58.359;   -8.831;  788.185
332.191;   63.886;   -7.621;  728.722
332.787;   66.691;   -4.591;  844.463
333.384;   67.066;   -7.412;  763.093
333.981;   65.888;   -8.293;  815.687
334.578;   68.262;   -7.052;  708.378
335.174;   70.419;   -3.102;  731.469
335.771;   68.946;   -5.943;  836.456
336.367;   67.144;   -7.393;  710.631
336.964;   72.434;   -4.063;  793.266
337.561;   69.136;   -3.813;  731.112
338.157;   64.863;   -4.654;  911.916
338.754;   63.653;   -7.934;  796.589
339.350;   61.993;   -4.414;  722.493
339.946;   63.699;   -4.664;  773.135
340.543;   56.726;   -6.375;  846.136
341.139;   49.070;   -9.815;  720.836
341.735;   46.423;   -4.526;  772.593
342.332;   45.425;   -4.895;  691.472
342.928;   46.467;   -4.295;  795.394
343.524;   39.605;   -5.476;  761.684
344.120;   35.580;   -5.856;  738.562
344.716;   39.061;   -2.155;  723.717
345.313;   36.755;   -6.275;  795.342
345.909;   31.692;   -8.815;  627.336
346.505;   32.002;   -5.305;  740.247
347.101;   33.455;   -2.674;  827.864
347.697;   34.155;   -4.344;  785.398
348.293;   28.679;   -9.975;  627.244
348.889;   28.300;   -5.774;  745.914
349.485;   28.805;   -5.004;  688.205
350.081;   29.326;   -4.704;  772.592
350.676;   24.266;   -6.635;  691.606
351.272;   27.877;   -4.504;  809.530
351.868;   27.688;   -3.914;  780.497
352.464;   25.410;   -9.044;  723.932
353.059;   22.126;   -8.314;  646.017
353.655;   24.709;   -7.024;  777.063
354.251;   25.602;   -5.343;  759.845
354.846;   20.368;   -8.604;  740.646
355.442;   18.742;   -6.945;  753.071
356.038;   19.747;   -7.564;  751.708
356.633;   19.575;   -5.814;  728.594
357.229;   17.954;   -7.364;  724.757
357.824;   16.794;   -8.024;  703.600
358.420;   14.948;   -9.384;  679.726
359.015;   16.059;   -5.104;  695.357
359.610;   16.432;   -6.854;  763.920
360.206;   11.389;  -10.185;  603.240
360.801;   13.482;   -7.054;  646.503
361.396;   15.399;   -5.034;  725.975
361.992;   10.593;   -8.284;  668.220
362.587;    8.737;   -8.625;  670.160
363.182;    9.545;   -7.674;  689.631
363.777;   12.048;   -5.164;  738.242
364.372;   11.364;   -8.604;  737.314
364.967;    7.053;   -9.055;  680.744
365.563;   10.372;   -6.114;  815.567
366.158;    8.618;   -5.814;  685.161
366.753;    8.314;   -7.854;  649.263
367.348;    6.982;   -7.804;  746.056
367.942;    6.760;   -7.954;  697.298
368.537;    5.325;   -4.984;  754.245
369.132;    6.216;   -8.564;  703.428
369.727;    2.827;   -8.855;  638.079
370.322;    3.443;   -6.245;  580.186
370.917;    3.133;   -6.425;  710.646
371.511;    6.019;   -6.294;  861.834
372.106;    3.194;   -7.685;  776.964
372.701;   -1.018;   -7.335;  585.988
373.296;    4.551;   -4.564;  863.135
373.890;   -0.665;  -10.235;  647.840
374.485;   -2.234;   -7.885;  691.199
375.079;    1.430;   -7.324;  738.685
375.674;    2.646;   -3.494;  812.970
376.268;   -1.276;   -8.525;  691.759
376.863;   -6.602;  -10.086;  580.327
377.457;   -0.108;   -7.025;  662.490
378.052;   -1.454;   -3.585;  764.884
378.646;   -3.923;   -7.595;  741.167
379.240;   -4.322;   -8.335;  721.176
379.835;   -3.782;   -5.785;  636.978
380.429;   -5.511;   -4.335;  562.557
381.023;   -5.228;   -6.805;  779.205
381.617;   -6.100;   -9.195;  680.106
382.212;   -4.578;   -6.905;  685.303
382.806;   -3.426;   -3.745;  760.690
383.400;   -7.590;   -7.745;  672.281
383.994;   -8.111;   -9.765;  664.870
384.588;   -4.307;   -6.564;  697.701
385.182;   -3.660;   -5.344;  726.624
385.776;   -4.842;   -8.514;  706.875
386.370;   -7.963;   -9.555;  681.968
386.964;   -7.948;   -8.715;  684.155
387.558;   -5.505;   -6.174;  598.360
388.152;   -8.930;   -8.725;  681.959
388.745;   -6.270;   -7.965;  814.707
389.339;   -5.393;   -5.924;  747.642
389.933;   -4.376;   -5.524;  695.370
390.527;   -5.152;   -7.114;  859.029
391.120;  -12.351;  -10.725;  595.318
391.714;   -9.212;   -8.035;  711.633
392.308;   -6.046;   -3.574;  780.253
392.901;   -9.248;   -7.245;  642.460
393.495;  -11.557;   -9.285;  595.414
394.089;   -9.256;   -5.895;  760.452
394.682;   -9.792;   -4.295;  697.188
395.275;  -10.382;   -9.875;  719.927
395.869;  -11.154;   -8.485;  667.314
396.462;   -9.757;   -7.455;  616.609
397.056;   -5.852;   -5.424;  776.621
397.649;  -10.934;   -6.605;  731.575
398.242;   -8.402;   -8.224;  712.645
398.836;   -7.357;   -7.474;  766.408
399.429;   -8.743;   -7.094;  631.041
400.022;  -12.237;   -9.475;  665.902
400.615;   -9.458;   -7.145;  805.609
401.208;   -7.899;   -7.174;  691.451
401.802;  -10.004;   -5.515;  699.329
402.395;  -10.672;   -9.875;  683.502
402.988;  -11.128;   -8.845;  696.627
403.581;   -8.660;   -8.874;  646.878
404.174;   -6.125;   -5.324;  686.568
404.767;   -9.086;   -9.575;  638.583
405.360;  -11.569;  -10.965;  621.445
405.953;   -6.132;   -8.764;  759.034
406.545;   -6.008;   -7.514;  725.342
407.138;  -10.114;  -10.025;  618.350
407.731;   -8.219;  -10.034;  613.303
408.324;   -4.490;   -9.374;  660.554
408.917;   -6.305;   -6.534;  681.864
409.509;   -8.054;   -8.004;  740.396
410.102;   -9.237;   -9.875;  643.948
410.695;   -3.550;   -8.604;  665.758
411.287;   -3.737;   -6.794;  599.821
411.880;   -5.538;   -9.334;  585.421
412.472;   -8.717;  -10.254;  613.092
413.065;   -5.880;   -6.714;  629.408
413.657;   -3.872;   -7.234;  576.678
414.250;   -4.197;  -10.544;  646.681
414.842;   -4.912;   -9.744;  676.353
415.434;   -2.853;   -6.994;  570.463
416.027;    0.670;   -5.893;  652.196
416.619;   -0.202;   -7.264;  713.400
417.211;   -0.936;  -10.374;  599.352
417.804;    2.218;   -7.993;  628.499
418.396;   -1.555;   -7.234;  607.643
418.988;    0.550;   -9.443;  659.238
419.580;   -2.451;  -10.724;  568.276
420.172;   -1.133;  -10.323;  536.196
420.764;    2.918;   -8.793;  672.482
421.356;    2.508;  -11.143;  636.898
421.948;    1.998;   -8.293;  677.661
422.540;    6.214;   -7.893;  680.027
423.132;    5.352;   -7.082;  600.641
423.724;    3.087;   -8.653;  561.267
424.316;    5.368;  -10.213;  621.345
424.908;    8.143;   -9.762;  591.517
425.500;    8.684;   -5.572;  647.978
426.092;    8.981;   -8.422;  648.268
426.683;    8.653;   -9.283;  684.836
427.275;   11.320;   -7.852;  641.471
427.867;   12.645;   -5.272;  668.948
428.458;   13.283;   -7.682;  732.344
429.050;   12.136;  -10.612;  680.749
429.642;   13.943;   -9.882;  743.124
430.233;   14.233;   -6.962;  569.356
430.825;   16.208;   -6.842;  724.809
431.416;   13.479;   -9.672;  698.241
432.008;   16.733;   -6.552;  651.723
432.599;   17.155;   -6.891;  656.073
433.190;   14.744;  -10.912;  637.670
433.782;   14.456;  -11.172;  590.395
434.373;   20.982;   -6.061;  884.765
434.964;   19.663;   -8.251;  602.920
435.556;   17.825;   -9.722;  634.537
436.147;   21.043;   -9.082;  758.490
436.738;   20.641;   -8.041;  701.099
437.329;   25.293;   -7.341;  721.723
437.920;   18.855;   -8.162;  666.688
438.511;   19.900;  -11.802;  564.526
439.103;   25.657;  -10.191;  623.998
439.694;   27.030;   -7.601;  681.583
440.285;   27.914;   -8.541;  764.432
440.876;   26.252;   -9.751;  845.738
441.466;   26.018;   -9.401;  575.162
442.057;   30.857;   -7.760;  665.814
442.648;   29.501;   -9.971;  746.255
443.239;   28.894;  -11.001;  620.477
443.830;   33.072;   -7.990;  704.958
444.421;   35.398;   -7.910;  655.474
445.011;   32.049;   -8.131;  693.619
445.602;   31.617;   -7.111;  743.126
446.193;   33.097;  -10.920;  488.117
446.783;   37.570;   -6.500;  640.397
447.374;   32.995;   -8.671;  692.759
447.964;   33.634;  -10.781;  713.770
448.555;   42.018;   -9.650;  822.742
449.145;   38.281;   -8.660;  662.853
449.736;   40.039;   -8.990;  803.179
450.326;   39.838;   -9.500;  713.626
450.917;   44.012;   -8.680;  675.324
451.507;   43.191;   -7.520;  600.661
452.097;   44.998;   -8.590;  746.267
452.688;   46.135;  -11.340;  742.160
453.278;   46.021;  -10.100;  566.840
453.868;   49.712;   -6.019;  793.550
454.458;   48.202;   -9.440;  651.141
455.048;   49.236;  -10.560;  711.783
455.639;   49.305;  -11.799;  567.096
456.229;   53.474;   -6.899;  710.694
456.819;   56.041;   -7.389;  751.158
457.409;   56.015;  -11.119;  773.993
457.999;   58.508;   -9.289;  737.505
458.589;   58.579;   -6.139;  686.606
459.179;   58.256;   -8.729;  717.658
459.769;   57.221;   -9.789;  627.099
460.358;   61.303;  -10.259;  797.262
460.948;   61.713;   -7.299;  689.503
461.538;   63.533;  -10.289;  660.677
462.128;   61.439;  -11.269;  664.934
462.717;   67.639;   -9.368;  710.326
463.307;   70.743;   -7.908;  705.846
463.897;   66.804;   -9.599;  656.942
464.486;   67.043;   -9.769;  837.128
465.076;   71.553;   -8.048;  733.776
465.666;   73.616;   -9.358;  652.900
466.255;   72.003;   -7.919;  785.651
466.845;   72.058;  -11.689;  666.749
467.434;   74.634;   -7.818;  725.873
468.023;   75.349;   -7.678;  658.357
468.613;   73.186;  -10.939;  713.946
469.202;   77.459;  -10.118;  646.507
469.791;   82.137;   -9.108;  737.811
470.381;   83.706;   -6.058;  742.813
470.970;   82.760;  -10.428;  711.099
471.559;   83.585;  -10.268;  733.291
472.148;   86.848;   -8.448;  675.737
472.738;   89.041;   -6.917;  765.466
473.327;   88.845;  -11.978;  637.529
473.916;   88.533;  -11.888;  737.446
474.505;   92.685;   -9.437;  751.703
475.094;   96.017;   -6.747;  806.570
475.683;   95.498;   -9.367;  797.699
476.272;   96.554;  -12.637;  730.632
476.861;   99.452;  -10.027;  706.754
477.449;  105.687;   -8.716;  728.487
478.038;  100.916;   -9.577;  692.513
478.627;  102.109;   -9.718;  714.852
479.216;  108.208;   -8.947;  769.441
479.805;  111.564;   -6.256;  783.375
480.393;  111.173;   -7.937; 1008.945
480.982;  110.223;   -7.717;  874.501
481.571;  116.799;   -9.266;  858.333
482.159;  117.679;   -7.636;  705.386
482.748;  117.978;   -9.667;  821.385
483.336;  123.572;  -10.376;  858.209
483.925;  122.827;   -7.147;  774.373
484.513;  130.242;   -7.996;  758.962
485.102;  127.576;  -10.027;  810.965
485.690;  136.235;  -10.446; 1011.050
486.278;  138.814;   -8.446;  979.329
486.867;  138.799;   -6.356;  809.662
487.455;  140.716;   -9.136;  898.229
488.043;  143.656;  -10.646;  748.361
488.631;  152.304;   -7.456; 1005.079
489.220;  156.484;   -6.636;  908.626
489.808;  156.854;  -11.036;  741.415
490.396;  166.161;  -10.246;  914.645
490.984;  173.181;   -8.556;  830.161
491.572;  183.893;   -5.886;  940.315
492.160;  193.908;   -9.486;  919.081
492.748;  208.164;  -10.976;  884.341
493.336;  231.222;   -8.776; 1019.693
493.924;  262.594;   -5.465;  958.077
494.512;  299.969;   -9.986; 1066.638
495.100;  351.886;  -10.636; 1103.280
495.687;  416.324;  -10.885; 1206.373
496.275;  473.822;   -8.126; 1150.796
496.863;  548.762;  -10.586; 1281.171
497.451;  676.670;  -11.926; 1386.805
498.038;  794.688;  -10.885; 1556.729
498.626;  896.398;   -6.315; 1741.407
499.214; 1064.370;   -7.326; 2016.609
499.801; 1306.163;  -11.906; 2220.633
500.389; 1573.645;  -10.466; 2312.494
500.976; 1821.481;   -5.236; 2744.849
501.564; 2290.328;   -8.936; 3148.565
502.151; 2839.002;  -13.176; 3515.999
502.738; 3402.798;  -10.646; 3971.274
503.326; 3798.150;   -9.525; 4403.796
503.913; 4088.681;  -10.856; 5161.749
504.500; 4607.596;  -11.586; 5986.420
505.088; 4979.377;  -10.336; 6381.201
505.675; 5484.174;   -6.355; 6925.547
506.262; 5981.702;   -9.046; 7619.060
506.849; 6482.412;  -10.416; 8733.969
507.436; 7007.142;  -10.305; 9790.121
508.023; 7504.565;   -5.496; 9985.472
508.610; 8500.900;   -7.856;10434.618
509.197; 9997.985;  -10.097;11198.435
509.784;11537.990;  -10.886;12391.194
510.371;12883.689;   -9.315;13603.713
510.958;13745.894;   -9.936;14426.586
511.545;14478.003;   -9.326;15243.775
512.132;15241.794;  -10.075;15945.876
512.719;15448.980;   -7.796;16340.369
513.305;16253.602;  -10.606;18011.766
513.892;17715.984;  -11.486;19754.971
514.479;19701.725;   -9.126;20967.805
515.066;21488.826;   -6.026;22299.793
515.652;21769.139;   -8.466;22908.660
516.239;22734.098;  -10.886;23798.875
516.825;25227.279;  -11.496;25567.275
517.412;27580.371;   -5.796;28154.959
517.998;29600.072;  -10.506;28344.111
518.585;29353.355;  -10.076;27134.219
519.171;27956.592;   -8.315;27268.576
519.758;28519.918;   -8.596;28964.129
520.344;29718.518;   -8.466;30664.494
520.930;32121.699;  -11.006;32550.605
521.516;32473.730;  -10.495;35422.895
522.103;31174.727;   -5.526;38280.004
522.689;31714.619;   -8.746;37835.117
523.275;33682.152;  -11.376;37288.613
523.861;36148.086;  -11.156;37281.395
524.447;40060.141;   -8.135;37846.949
525.033;41097.320;   -7.896;38321.949
525.619;39978.410;  -12.476;38579.285
526.205;39953.441;   -9.516;40622.875
526.791;39918.789;   -6.926;42258.836
527.377;41224.129;   -8.346;42966.902
527.963;42883.719;   -8.717;42018.949
528.549;41770.117;  -11.016;42476.828
529.135;42182.531;   -8.536;41854.852
529.721;41542.199;   -9.666;41237.711
530.306;39776.234;  -10.066;41259.445
530.892;40237.957;  -11.356;41506.047
531.478;39729.129;   -6.596;43559.613
532.063;40374.105;   -8.836;47695.563
532.649;43884.820;  -10.047;50808.324
533.235;45351.961;   -9.746;51787.500
533.820;44375.277;   -6.566;52145.035
534.406;44037.930;  -10.817;51133.488
534.991;47220.281;   -9.416;49996.805
535.576;48523.715;   -9.036;48882.852
536.162;48616.121;   -6.156;46942.285
536.747;49342.105;  -11.607;45711.746
537.333;49628.984;  -11.787;48510.180
537.918;49527.727;  -12.437;50439.891
538.503;50459.504;   -7.196;50863.711
539.088;49038.035;  -10.556;50906.922
539.673;47416.922;   -8.767;52621.965
540.259;48447.465;  -10.026;52368.094
540.844;50120.762;   -7.416;50879.109
541.429;48575.152;   -9.467;52077.777
542.014;48111.129;   -9.527;52716.695
542.599;50945.922;   -9.946;52363.281
543.184;53933.168;   -7.927;53187.137
543.769;52065.875;   -9.297;54697.605
544.354;48261.156;  -10.127;53913.914
544.938;46392.848;   -9.267;49680.164
545.523;48826.227;   -6.506;47386.277
546.108;52159.699;   -9.787;49151.949
546.693;52130.078;  -11.587;51384.637
547.278;52573.141;  -10.986;51853.254
547.862;49238.734;   -8.206;51173.750
548.447;46343.582;  -10.067;51691.395
549.031;46902.766;   -9.637;52456.703
549.616;48079.617;   -9.926;52714.516
550.201;47019.941;   -6.347;52414.598
550.785;45698.398;   -7.917;52355.059
551.370;46522.023;  -10.867;54589.453
551.954;47955.320;   -9.047;58267.348
552.538;49821.258;   -7.827;59062.176
553.123;49464.449;  -10.287;58115.285
553.707;44878.543;  -12.178;56556.285
554.291;45656.828;   -8.717;56201.668
554.876;49005.363;   -7.457;55335.762
555.460;49864.281;  -10.387;54155.703
556.044;50603.551;   -9.618;53721.484
556.628;49636.848;  -11.567;53731.016
557.212;47397.629;   -8.097;54312.531
557.796;48654.184;  -11.077;53797.773
558.380;47219.094;  -11.108;56145.984
558.964;46230.805;   -9.057;57277.930
559.548;46349.477;   -6.977;56459.641
560.132;45073.934;  -11.457;54434.543
560.716;43487.578;  -11.378;54800.617
561.300;44587.664;   -9.577;57606.945
561.884;47152.504;   -7.127;58972.445
562.467;47865.117;   -7.118;57327.570
563.051;47500.824;  -13.358;54962.434
563.635;44664.555;  -10.178;52594.473
564.219;43775.102;   -7.837;50610.410
564.802;43300.848;  -11.398;49551.180
565.386;44369.598;  -12.788;48370.953
565.969;45452.398;   -9.077;48178.871
566.553;45986.074;   -6.207;49957.305
567.136;43330.066;   -8.568;50369.594
567.720;42340.266;  -11.868;49492.004
568.303;42509.070;   -8.268;50616.352
568.887;41116.180;   -8.698;50727.148
569.470;40591.012;   -6.808;51698.379
570.053;38877.332;  -13.188;52122.078
570.637;37577.219;  -12.037;52536.438
571.220;37424.352;   -8.577;51186.098
571.803;38324.434;   -8.498;51032.762
572.386;40690.313;  -10.498;49609.887
572.969;42112.461;   -9.388;48285.926
573.552;38545.875;   -8.338;47624.285
574.135;36879.031;   -8.518;45498.641
574.718;33356.133;  -13.628;41970.434
575.301;32620.582;  -10.893;41447.137
575.884;31885.033;   -8.158;40923.836
576.467;36790.840;  -10.328;45267.723
577.050;35080.492;  -13.058;48175.543
577.633;33736.367;   -9.458;47729.328
578.216;35365.789;   -8.928;47579.793
578.799;36590.285;   -9.358;47820.996
579.381;35934.387;  -11.388;48115.551
579.964;33121.188;  -11.718;47333.766
580.547;33114.902;   -8.588;46668.969
581.129;34463.141;   -8.859;44466.141
581.712;34668.598;  -10.729;44164.922
582.294;36370.875;  -11.118;46477.855
582.877;34317.754;   -5.218;48244.254
583.459;34614.984;   -8.679;47437.895
584.042;36621.215;  -10.709;46943.219
584.624;38622.613;  -11.669;46792.227
585.206;37089.965;   -8.218;46557.250
585.789;35792.652;  -10.569;45793.773
586.371;36277.375;  -11.859;43836.391
586.953;35029.504;  -10.719;42972.492
587.536;36971.570;   -7.198;42487.211
588.118;38131.250;   -8.720;42086.414
588.700;37206.969;  -10.439;43389.930
589.282;36845.711;   -9.198;43646.039
589.864;35901.027;   -9.199;43438.109
590.446;34025.277;  -11.319;43151.926
591.028;33545.914;  -11.159;42781.867
591.610;33206.809;  -11.779;42839.098
592.192;29731.041;   -7.668;42820.402
592.774;30552.396;  -11.949;40724.277
593.356;31754.893;  -12.129;39874.789
593.937;30165.297;  -10.669;39980.648
594.519;31518.563;   -6.509;42069.633
595.101;33453.457;  -10.849;42976.031
595.683;32101.570;  -11.679;44084.441
596.264;31366.777;   -9.049;43478.797
596.846;33525.891;   -8.849;43803.672
597.427;33771.902;   -9.570;42986.934
598.009;34987.305;  -12.620;42832.219
598.591;34331.391;  -10.039;42580.086
599.172;33317.559;  -10.369;43061.805
599.753;31564.637;   -9.140;41691.469
600.335;31583.318;  -11.430;40692.520
600.916;31751.975;   -9.939;39982.422
601.498;30356.324;   -8.479;40318.617
602.079;29345.773;  -10.920;40670.609
602.660;31660.256;  -11.480;41450.898
603.241;33208.191;  -11.699;41137.738
603.823;33116.051;   -9.579;38868.797
604.404;32894.934;  -10.620;38182.785
604.985;31824.979;  -10.450;38078.047
605.566;31229.441;   -9.129;38056.633
606.147;30895.674;   -7.510;37020.418
606.728;32038.207;  -10.660;37883.359
607.309;32726.006;  -11.740;38748.273
607.890;32307.998;   -9.759;38850.230
608.471;31130.090;   -8.250;37457.918
609.051;32034.727;   -9.240;36066.457
609.632;30037.172;  -12.120;35991.074
610.213;28314.760;   -9.110;37402.641
610.794;30211.971;   -8.030;38383.363
611.374;32958.660;   -8.110;40562.387
611.955;32625.799;  -13.560;38533.727
612.536;29834.965;  -11.400;36951.789
613.116;28620.549;   -8.070;37197.891
613.697;30523.904;  -10.830;38411.125
614.277;31783.193;  -11.641;38673.938
614.858;31044.350;  -13.310;37075.863
615.438;29591.996;   -7.460;35092.906
616.019;28244.467;   -7.601;33666.301
616.599;28956.988;  -12.020;34189.023
617.179;30595.217;  -11.780;36952.047
617.760;33497.746;   -8.570;39582.574
618.340;33735.055;  -11.471;38943.977
618.920;32238.455;  -11.170;37594.156
619.500;34003.992;  -11.071;37866.938
620.080;34233.836;   -7.750;37869.043
620.660;32417.609;  -12.711;36868.617
621.241;30547.330;  -10.211;36352.309
621.821;29472.775;  -10.961;35459.520
622.401;29020.643;   -7.720;35207.414
622.980;30210.213;   -8.981;35980.422
623.560;30314.672;   -9.331;37351.328
624.140;29023.094;   -9.850;34388.582
624.720;26553.098;   -7.451;32368.764
625.300;24787.049;   -9.070;32638.629
625.880;28055.189;  -12.601;34599.035
626.459;30131.029;  -11.751;36831.738
627.039;31798.047;   -9.281;38299.098
627.619;33800.305;   -8.801;38289.574
628.198;32419.123;  -12.071;37220.695
628.778;31085.195;   -9.461;37632.563
629.357;31972.945;   -8.491;38003.012
629.937;32143.619;   -9.721;38402.039
630.516;32361.229;   -9.951;37868.801
631.096;32619.395;  -11.731;35760.410
631.675;34112.891;   -8.572;35225.219
632.254;33810.352;  -11.282;35130.289
632.834;32836.398;  -13.322;35794.570
633.413;32595.848;  -10.301;35788.922
633.992;31877.033;   -8.582;34532.863
634.571;33214.277;   -8.352;33590.113
635.151;33131.797;  -11.912;34943.863
635.730;33049.871;  -10.511;35352.523
636.309;35332.156;   -7.731;35366.605
636.888;32727.109;   -9.952;36165.637
637.467;31136.740;  -11.672;37515.902
638.046;31462.133;   -8.901;39288.695
638.625;32772.406;   -7.912;38279.699
639.204;32769.355;  -10.022;37741.598
639.782;30561.879;  -12.252;38364.551
640.361;28669.084;  -10.041;36740.621
640.940;27716.371;  -11.161;34950.082
641.519;28736.535;   -9.701;34137.398
642.097;30670.146;  -11.271;35654.258
642.676;32752.658;   -8.651;35637.957
643.255;34260.973;   -8.711;36567.074
643.833;31665.727;   -9.581;37809.434
644.412;29108.566;  -13.711;37337.293
644.990;31064.234;  -11.811;37018.531
645.569;33663.973;   -9.411;36518.469
646.147;32591.330;  -10.291;36186.430
646.726;31190.283;  -12.401;36267.688
647.304;31137.699;  -10.411;36647.625
647.882;30581.504;   -9.651;39286.742
648.461;32282.572;   -9.631;39157.703
649.039;35671.844;  -11.881;35412.883
649.617;35435.863;   -9.661;34744.918
650.195;33130.172;   -9.301;35403.098
650.773;31942.285;  -10.511;35053.797
651.352;30935.857;  -11.521;33756.816
651.930;29023.414;  -12.211;31868.773
652.508;26204.744;   -9.171;33121.551
653.086;26896.588;   -9.371;33564.793
653.663;32322.230;  -13.161;34054.668
654.241;35733.086;  -13.031;35693.309
654.819;36646.250;   -9.371;36422.906
655.397;36847.961;  -10.511;38213.484
655.975;33575.973;  -10.371;39507.625
656.553;30395.389;  -10.051;39498.223
657.130;28975.051;  -10.061;40395.480
657.708;27134.682;   -9.561;39242.020
658.286;24457.510;  -11.511;38920.020
658.863;26587.711;  -10.261;40202.898
659.441;30303.719;   -7.531;39677.938
660.018;32442.715;   -9.501;40413.355
660.596;31766.525;  -13.301;39931.414
661.173;31566.629;  -11.211;39604.531
661.750;33386.074;   -9.951;39700.070
662.328;32639.449;   -9.390;39292.809
662.905;31106.063;  -11.330;38235.648
663.482;28112.342;   -9.050;36212.305
664.060;25066.553;   -8.240;35944.945
664.637;25768.662;  -10.050;35170.785
665.214;29038.852;  -11.760;34197.523
665.791;29669.691;  -10.530;34549.520
666.368;28643.484;   -9.690;35118.578
666.945;30235.906;   -9.320;36019.418
667.522;30930.061;  -11.860;36048.438
668.099;32201.102;  -10.770;36243.914
668.676;32275.945;   -6.260;35958.875
669.253;34469.285;   -7.000;37384.730
669.830;35418.160;  -10.190;36779.629
670.407;32357.846;   -9.550;35231.289
670.984;33071.250;   -9.260;35544.270
671.560;30225.455;   -9.280;35466.867
672.137;26106.711;  -11.810;34280.863
672.714;28202.922;  -11.490;34632.863
673.290;31744.725;   -7.740;35135.422
673.867;31214.961;  -10.660;36114.480
674.443;31291.646;  -12.230;36152.859
675.020;31084.404;  -10.450;35327.238
675.596;29897.303;   -9.260;35795.176
676.173;29088.260;  -10.780;35430.355
676.749;28826.455;  -13.690;33549.516
677.326;28611.352;  -11.980;32210.012
677.902;28113.270;   -8.630;32068.871
678.478;29659.449;  -10.730;32583.891
679.054;30072.061;  -10.520;32088.928
679.631;29502.273;  -11.920;30978.848
680.207;29448.004;   -7.490;33160.887
680.783;31216.090;   -9.860;35570.363
681.359;32841.590;  -13.380;36125.184
681.935;33719.527;  -12.480;35240.922
682.511;32936.492;   -7.900;34429.961
683.087;31700.676;   -7.710;34463.680
683.663;31114.438;  -11.480;34648.898
684.239;29599.682;  -14.090;34546.457
684.815;28440.814;   -7.560;35586.375
685.390;29248.602;   -9.910;35821.895
685.966;31007.090;  -11.159;35085.871
686.542;32408.953;  -11.169;34198.230
687.118;33512.930;   -5.959;32847.707
687.693;32534.932;  -10.329;32794.027
688.269;33288.148;  -12.059;33072.367
688.844;33018.652;  -10.909;33141.664
689.420;30196.693;   -8.019;33965.742
689.995;29387.805;   -8.399;34655.523
690.571;30660.008;  -10.949;33576.742
691.146;29920.803;   -9.619;32657.219
691.722;28377.625;   -8.999;32526.979
692.297;27750.344;  -11.589;33014.617
692.872;27845.184;  -11.739;34012.254
693.448;30652.211;  -11.059;34237.434
694.023;30928.838;  -10.139;34142.672
694.598;29107.592;   -9.029;34132.031
695.173;30339.197;  -13.319;34205.250
695.748;30354.869;  -10.169;32882.488
696.323;28181.830;   -8.339;32864.906
696.898;27164.668;   -8.169;33170.004
697.473;27972.201;  -12.309;32432.984
698.048;27930.117;  -10.989;31649.303
698.623;26812.229;   -9.329;30778.141
699.198;27845.912;   -9.849;31140.119
699.773;28592.916;  -12.329;31764.299
700.348;29810.709;  -10.389;31780.816
700.922;30134.863;   -9.269;32046.375
701.497;30785.492;   -9.329;32603.574
702.072;31754.135;  -10.789;34799.871
702.646;30851.115;  -10.839;35793.172
703.221;30498.730;   -9.099;35201.590
703.795;32392.746;  -10.939;34764.527
704.370;29796.006;  -12.859;34307.367
704.944;28199.617;  -11.559;33509.887
705.519;29499.193;   -7.939;31388.584
706.093;31220.689;  -10.499;31340.104
706.668;32831.727;  -11.289;32630.281
707.242;32129.600;  -11.509;32728.779
707.816;30225.891;   -9.639;32947.238
708.390;29298.527;  -11.429;33277.855
708.965;28988.570;  -11.869;33834.336
709.539;30714.627;  -11.689;33709.273
710.113;31136.117;  -10.478;33044.313
710.687;30434.088;  -10.228;31953.992
711.261;29736.832;  -13.698;30505.949
711.835;29911.180;  -13.378;30262.369
712.409;28588.348;   -9.698;31254.447
712.983;28044.012;  -11.898;32754.986
713.557;30150.342;  -15.138;34018.824
714.131;28386.637;  -14.098;34579.625
714.704;28060.936;   -9.958;33890.262
715.278;30323.129;  -10.028;33531.102
715.852;28901.467;  -11.148;33601.660
716.425;27847.068;   -9.068;33515.117
716.999;26873.746;  -10.038;33185.555
717.573;26669.139;   -9.798;33905.996
718.146;25954.016;  -12.378;35199.293
718.720;25908.242;  -11.918;35060.551
719.293;26037.328;   -8.088;34973.230
719.867;28244.449;  -10.888;36394.449
720.440;30475.574;  -11.938;36663.008
721.013;31542.936;  -12.818;35102.426
721.587;29412.895;  -10.298;33985.266
722.160;27236.260;  -10.048;33524.965
722.733;26114.256;  -12.108;32987.043
723.306;26332.324;  -10.818;33066.301
723.880;28239.822;   -8.908;33399.500
724.453;27865.244;   -9.878;33468.297
725.026;28431.102;  -11.188;33816.637
725.599;30863.371;  -11.678;32797.996
726.172;29878.373;   -9.618;33187.434
726.745;27351.785;   -8.258;35136.613
727.318;26913.709;  -12.978;35751.730
727.891;26810.244;  -12.148;35890.430
728.463;26361.822;   -8.968;34822.090
729.036;26133.350;  -10.188;32895.086
729.609;25835.889;  -11.788;31823.225
730.182;23573.869;  -11.788;31445.283
730.754;22201.410;  -10.268;32373.223
731.327;22754.146;   -9.998;33676.820
731.900;24156.104;  -12.228;33417.000
732.472;23731.982;  -13.848;31978.498
733.045;22521.188;   -8.698;30368.777
733.617;22158.111;  -10.607;30574.215
734.190;24314.012;  -11.507;31280.975
734.762;25299.957;  -13.647;31674.412
735.334;26497.416;   -9.767;31247.291
735.907;26695.279;   -9.897;29876.211
736.479;26393.855;  -11.637;29808.488
737.051;27568.900;   -9.567;30233.547
737.623;27005.150;   -8.187;31469.086
738.195;25578.393;  -11.187;31784.225
738.768;24225.664;  -12.337;32120.523
739.340;22646.125;  -12.227;32094.342
739.912;22076.555;  -11.057;31312.680
740.484;22192.035;  -10.207;31946.238
741.056;21825.635;  -10.047;32984.059
741.628;22701.219;  -13.627;33897.715
742.199;23508.730;   -7.177;33213.016
742.771;25818.582;  -10.797;31369.113
743.343;26756.100;  -11.997;31865.473
743.915;26416.977;  -12.867;32388.631
744.487;23973.283;   -7.617;31079.568
745.058;21282.057;   -9.557;30570.107
745.630;22093.699;   -9.877;29970.127
746.201;23407.836;  -14.177;29186.766
746.773;23814.100;   -9.237;28805.723
747.344;22053.348;   -9.847;29591.223
747.916;20393.898;  -11.657;31412.201
748.487;21374.902;  -10.587;32194.898
749.059;23036.029;   -8.707;32533.719
749.630;23394.471;  -10.537;32158.518
750.201;22756.275;  -11.687;30855.395
750.773;21576.299;  -11.647;28622.555
751.344;21467.828;   -7.147;28405.732
751.915;23435.775;   -9.757;28461.551
752.486;24448.480;  -12.427;27842.850
753.057;23548.328;  -12.227;27845.008
753.628;23523.412;  -10.417;27728.107
754.199;22964.934;  -11.767;27381.086
754.770;22743.822;  -11.187;25882.203
755.341;21822.500;  -10.507;25886.184
755.912;20294.260;   -9.387;26050.861
756.483;18864.295;  -10.647;26798.779
757.054;19248.389;  -11.837;27048.238
757.625;19394.549;  -12.716;26294.838
758.195;19178.789;   -9.666;26142.076
758.766;19285.738;   -8.656;26392.234
759.337;18722.508;  -12.856;26334.594
759.907;18528.875;  -13.366;27579.652
760.478;18489.523;   -8.576;28352.770
761.048;19536.283;  -10.526;27325.088
761.619;19522.043;  -11.116;26460.428
762.189;18091.256;  -12.136;26029.826
762.760;17776.061;   -9.456;26430.145
763.330;18265.645;   -7.136;26670.902
763.900;18459.195;  -11.786;26603.021
764.471;17843.518;  -11.546;25542.740
765.041;16936.129;   -8.096;24358.459
765.611;16415.764;   -8.876;23991.297
766.181;16550.094;  -12.196;24470.236
766.751;16138.070;  -11.636;24845.975
767.321;16889.709;  -10.156;24533.633
767.891;16197.139;  -11.766;24916.492
768.461;16465.246;  -14.936;24776.771
769.031;17638.178;  -12.356;24757.988
769.601;18157.908;   -7.526;24181.088
770.171;17739.379;  -10.766;23670.387
770.741;16919.730;  -13.176;22960.045
771.311;16616.068;  -10.616;22917.523
771.880;17129.744;   -9.576;23562.941
772.450;16913.209;  -10.336;24216.500
773.020;16609.596;  -13.516;24140.398
773.589;17095.629;  -13.466;24414.857
774.159;16805.709;   -8.686;23858.717
774.729;15539.783;   -9.476;22942.135
775.298;13873.870;  -13.666;22324.033
775.867;13562.291;  -11.716;21140.313
776.437;13733.828;   -9.906;20838.092
777.006;13099.419;  -12.166;20599.510
777.576;12569.959;  -12.356;20508.809
778.145;12513.655;  -11.646;20732.947
778.714;12959.413;   -8.226;21062.465
779.283;13859.817;   -9.556;20949.664
779.853;14339.080;  -14.116;20508.623
780.422;13744.560;  -11.506;20649.082
780.991;13334.847;   -9.556;21527.520
781.560;13135.498;   -9.095;22632.658
782.129;13065.344;  -12.135;23048.277
782.698;12899.555;  -10.865;23438.555
783.267;12492.670;   -9.335;23267.734
783.836;12706.203;  -11.045;22415.133
784.404;13384.909;  -13.865;20443.152
784.973;12626.602;  -13.095;19699.150
785.542;11348.572;  -11.575;19763.828
786.111;10823.762;   -9.705;20341.408
786.679;11551.435;  -12.105;20207.967
787.248;11724.198;  -12.455;19516.465
787.817;11276.351;  -11.535;18900.363
788.385;11351.443;   -9.765;17879.121
788.954;11561.767;  -14.005;17658.301
789.522;11126.652;  -11.955;17788.879
790.090;11390.016;  -10.135;18118.277
790.659;12182.061;  -10.975;18338.736
791.227;11950.970;  -13.375;18508.615
791.795;11296.144;  -12.375;17898.254
792.364;10839.231;  -10.725;17295.133
792.932;10978.630;   -9.715;16822.051
793.500;11200.466;  -12.675;17040.148
794.068;10993.541;  -13.495;17179.787
794.636; 9734.904;  -10.885;16664.246
795.204; 8685.496;  -11.045;16524.545
795.772; 9488.358;  -13.175;17274.564
796.340;10673.739;  -12.445;17891.002
796.908;10407.657;   -9.735;17648.561
797.476;10767.867;   -9.815;17064.080
798.044;11474.817;  -13.985;16672.777
798.612;11190.258;  -13.115;17023.996
799.180; 9940.102;  -10.185;16561.615
799.747; 9080.056;   -9.055;15962.773
800.315; 8612.905;  -12.385;15296.992
800.883; 8899.903;  -15.035;14801.771
801.450; 9101.571;  -10.365;14534.430
802.018; 9156.877;   -9.855;14173.248
802.585; 9312.183;  -11.905;14029.547
803.153; 8958.359;  -11.585;13836.846
803.720; 8431.731;   -9.095;13567.324
804.287; 8537.394;   -9.135;13360.622
804.855; 8860.856;  -11.604;13681.981
805.422; 8994.015;  -11.794;13536.560
805.989; 8840.775;  -10.734;13355.958
806.556; 8349.177;  -10.444;13747.896
807.124; 8212.273;  -12.764;13987.376
807.691; 8738.171;  -12.964;14038.674
808.258; 9044.267;  -11.134;14120.152
808.825; 9243.364;   -9.854;13860.111
809.392; 8863.348;  -10.504;13268.790
809.959; 8340.493;  -13.054;12680.389
810.526; 8189.314;   -8.294;12427.308
811.093; 7899.312;   -8.394;12030.105
811.659; 7218.506;  -12.304;11653.664
812.226; 7066.868;  -13.944;11637.183
812.793; 7520.234;  -10.484;11611.521
813.360; 7573.304;  -10.144;11885.181
813.926; 6934.478;  -11.684;12770.539
814.493; 6398.016;  -13.644;12677.638
815.060; 6293.480;   -9.724;11974.336
815.626; 6594.471;   -9.854;11594.715
816.193; 6547.648;  -13.254;11579.474
816.759; 6440.390;  -13.204;11666.972
817.325; 6221.540;   -9.434;11325.530
817.892; 5930.121;  -10.134;11105.369
818.458; 5900.256;  -13.474;10843.928
819.024; 5931.682;  -11.854;10714.406
819.591; 6268.260;  -10.244;10469.165
820.157; 6433.227;  -10.704;10235.523
820.723; 6736.439;  -12.324;10847.563
821.289; 7109.272;   -9.444;11040.980
821.855; 7057.440;   -8.374;10357.100
822.421; 6602.197;  -10.234; 9978.918
822.987; 6368.688;  -13.294; 9754.177
823.553; 6234.982;  -10.884;10065.755
824.119; 5862.579;   -8.884;10036.294
824.685; 5717.053;   -6.784;10029.192
825.251; 5679.940;  -12.004;10199.230
825.816; 5815.213;  -11.474; 9820.189
826.382; 5609.477;   -9.174; 9297.248
826.948; 5352.609;   -9.214; 9381.347
827.513; 5149.401;  -10.774; 9450.726
828.079; 5074.253;  -11.924; 9472.444
828.645; 5076.502;  -10.543; 9292.643
829.210; 5216.767;  -10.533; 9065.341
829.776; 5244.976;  -10.753; 9132.620
830.341; 5241.136;  -10.173; 9092.878
830.906; 5400.049;  -10.743; 9078.557
831.472; 5262.690;  -11.113; 8534.535
832.037; 4734.146;  -10.603; 8677.874
832.602; 4666.989;  -13.323; 8628.692
833.167; 5061.065;  -10.823; 8879.031
833.733; 5023.891;  -10.113; 9189.790
834.298; 4726.811;  -13.583; 9052.608
834.863; 4572.697;  -12.703; 8895.087
835.428; 4420.427;  -10.523; 8824.266
835.993; 4349.281;   -6.963; 8845.385
836.558; 4439.965;  -10.763; 8888.563
837.123; 4605.497;   -9.903; 8966.582
837.688; 4544.554;   -9.913; 8617.860
838.253; 4435.568;  -10.283; 8590.699
838.817; 4572.172;  -12.963; 8443.797
839.382; 4708.667;  -14.243; 8799.356
839.947; 4547.481;  -10.733; 8810.595
840.511; 4610.051;   -9.383; 8796.394
841.076; 4636.133;  -12.563; 8347.231
841.641; 4444.706;  -12.953; 8224.330
842.205; 4168.645;   -7.043; 8223.349
842.770; 4120.674;   -8.163; 8622.107
843.334; 4154.442;  -12.503; 8410.386
843.898; 4137.686;  -11.693; 8337.465
844.463; 4035.273;  -10.203; 8506.283
845.027; 3930.257;   -9.533; 8280.962
845.591; 3961.941;  -13.443; 8231.141
846.156; 3864.139;  -13.143; 7969.179
846.720; 3646.028;   -9.433; 7768.278
847.284; 3370.328;  -11.033; 7630.957
847.848; 3230.478;  -10.403; 7472.395
848.412; 3242.080;  -11.553; 7437.394
848.976; 3415.803;   -8.393; 7674.592
849.540; 3475.095;   -8.713; 7836.011
850.104; 3478.913;  -12.463; 7913.669
850.668; 3611.260;  -12.973; 7694.508
851.232; 3635.909;  -10.793; 7756.887
851.796; 3537.045;  -10.662; 7926.545
852.359; 3548.458;  -13.082; 7827.844
852.923; 3312.797;  -12.192; 7641.163
853.487; 3242.643;  -11.912; 7342.501
854.050; 3392.154;  -10.892; 7042.820
854.614; 3351.198;  -13.992; 7151.338
855.177; 3227.192;  -11.732; 7105.077
855.741; 3154.124;   -8.962; 6989.675
856.304; 3050.363;   -9.442; 6596.634
856.868; 2827.108;  -14.192; 6356.272
857.431; 2614.261;  -12.702; 6468.571
857.995; 2654.590;   -9.942; 6373.210
858.558; 2696.919;   -9.112; 6324.448
859.121; 2529.577;  -12.932; 6408.327
859.684; 2464.170;  -13.442; 6347.886
860.247; 2859.739;  -10.632; 6321.264
860.810; 3178.802;  -11.272; 6301.903
861.374; 3171.922;   -9.832; 6607.881
861.937; 3121.709;  -11.762; 6408.200
862.500; 2979.290;   -9.722; 6572.639
863.062; 2689.500;  -10.512; 6387.297
863.625; 2587.887;  -11.232; 6190.836
864.188; 2590.297;  -14.112; 5807.254
864.751; 2605.398;  -11.302; 5682.413
865.314; 2730.902;  -10.112; 5547.492
865.876; 2769.153;  -12.182; 5500.150
866.439; 2685.306;  -10.722; 5415.909
867.002; 2540.622;   -9.252; 5501.567
867.564; 2434.676;   -9.572; 5413.946
868.127; 2309.013;  -13.142; 5160.325
868.689; 2045.838;  -12.902; 5133.183
869.252; 1913.698;   -9.732; 5252.382
869.814; 1921.901;   -9.432; 5297.141
870.377; 2028.859;  -11.552; 5390.919
870.939; 2024.499;   -9.052; 5599.898
871.501; 1942.925;  -10.982; 5248.336
872.063; 1951.073;  -12.292; 4854.235
872.626; 1953.031;  -14.912; 4817.074
873.188; 1968.174;  -13.112; 4987.732
873.750; 1922.356;  -13.442; 4868.651
874.312; 1976.742;   -9.402; 4779.330
874.874; 2100.935;  -11.062; 4866.348
875.436; 1978.312;  -13.931; 4718.887
875.998; 1701.498;   -9.561; 4660.005
876.560; 1562.026;  -11.321; 4462.964
877.122; 1559.331;  -12.221; 4145.042
877.683; 1534.519;  -12.191; 4056.481
878.245; 1607.396;  -12.101; 3950.740
878.807; 1746.932;   -8.971; 4058.958
879.369; 1784.782;  -12.071; 3954.677
879.930; 1718.821;  -14.621; 3941.495
880.492; 1551.713;  -10.311; 4067.014
881.053; 1411.285;  -10.901; 3859.633
881.615; 1401.109;  -14.411; 3776.071
882.176; 1424.138;  -13.761; 3734.750
882.738; 1436.916;   -9.181; 3678.489
883.299; 1397.445;  -11.791; 3405.407
883.860; 1321.762;  -13.121; 3351.106
884.422; 1222.629;  -11.211; 3394.044
884.983; 1158.212;  -10.091; 3166.443
885.544; 1138.144;   -8.461; 3189.802
886.105; 1079.290;  -12.361; 3160.360
886.666; 1001.307;  -14.141; 3093.059
887.227;  974.863;  -11.361; 2941.957
887.788;  998.442;  -11.401; 2974.836
888.349;  954.878;  -13.791; 2721.214
888.910;  858.249;  -13.191; 2696.493
889.471;  756.575;   -9.881; 2560.172
890.032;  690.480;   -9.881; 2558.190
890.593;  691.147;  -10.371; 2567.669
891.153;  687.199;  -13.301; 2460.307
891.714;  624.778;  -11.431; 2372.046
892.275;  580.323;  -11.291; 2309.505
892.835;  573.489;  -11.471; 2382.543
893.396;  563.278;  -11.541; 2295.502
893.956;  553.546;  -11.181; 2162.420
894.517;  535.748;  -11.741; 2125.439
895.077;  488.118;  -11.671; 2086.978
895.638;  437.072;  -11.311; 2126.316
896.198;  417.475;   -9.831; 1838.275
896.758;  419.181;   -8.421; 1892.813
897.319;  412.511;  -12.351; 1792.232
897.879;  393.759;  -13.511; 1762.751
898.439;  368.265;  -12.001; 1661.149
898.999;  347.014;  -10.180; 1781.468
899.559;  332.044;  -12.030; 1703.347
900.119;  323.398;  -15.710; 1537.525
900.679;  302.492;   -8.900; 1638.384
901.239;  277.412;   -8.340; 1527.902
901.799;  265.281;  -13.910; 1456.441
902.359;  255.901;  -13.460; 1357.140
902.919;  251.290;  -11.490; 1331.118
903.479;  249.143;  -12.110; 1317.257
904.038;  241.239;  -11.720; 1262.595
904.598;  226.856;  -13.610; 1152.034
905.158;  215.945;  -11.040; 1240.893
905.717;  208.784;  -10.900; 1233.691
906.277;  204.361;  -15.080; 1217.330
906.836;  202.526;  -13.380; 1222.408
907.396;  199.584;  -10.780; 1193.047
907.955;  193.053;   -8.500; 1182.526
908.515;  185.650;  -12.760; 1099.364
909.074;  183.033;  -11.900; 1092.863
909.633;  179.836;   -8.950; 1069.121
910.192;  176.604;   -8.770; 1196.460
910.752;  172.382;  -12.390; 1029.960
911.311;  168.969;  -13.680; 1009.780
911.870;  163.108;  -12.370;  971.460
912.429;  160.197;  -10.900; 1094.080
912.988;  157.560;  -11.690; 1081.060
913.547;  155.038;  -13.240;  940.380
914.106;  153.822;  -11.990;  999.420
914.665;  154.033;   -9.990;  984.020
915.224;  152.652;  -12.880; 1035.760
915.782;  150.588;  -12.350;  922.560
916.341;  151.909;   -9.110; 1049.840
916.900;  148.740;   -9.270;  925.260
917.458;  146.364;  -13.240;  884.220
918.017;  145.077;  -13.550;  942.600
918.576;  144.864;  -12.320;  904.440
919.134;  143.957;  -11.490;  837.980
919.693;  142.482;  -13.670;  893.060
920.251;  140.632;  -15.470;  876.500
920.809;  140.137;  -11.290;  839.580
921.368;  140.213;  -10.210;  885.360
921.926;  139.961;  -12.140;  842.940
922.484;  138.956;  -13.080;  903.360
923.042;  138.072;  -11.720;  880.340
923.601;  140.482;   -7.480;  998.680
924.159;  138.781;  -11.570;  935.560
924.717;  137.852;  -13.840;  841.080
925.275;  139.226;  -10.640;  903.240
925.833;  137.843;  -11.540;  779.320
926.391;  138.458;  -12.960;  938.380
926.949;  139.274;  -14.130;  857.680
927.506;  138.773;  -11.750;  903.500
928.064;  137.277;  -10.250;  877.580
928.622;  136.601;  -13.030;  880.100
929.180;  138.539;  -13.400;  814.180
929.737;  138.825;  -10.700;  808.540
930.295;  140.037;  -10.070;  928.480
930.853;  140.521;  -11.960;  849.100
931.410;  139.124;  -13.120;  821.120
931.968;  140.082;  -10.770;  940.660
932.525;  141.965;  -10.680;  909.380
933.082;  144.651;  -13.130;  811.440
933.640;  150.326;  -13.210;  925.900
934.197;  150.156;  -11.060;  886.360
934.754;  149.988;   -9.580;  897.780
935.312;  151.860;  -14.000;  863.340
935.869;  154.864;  -10.710; 1012.980
936.426;  152.672;   -9.860;  872.800
936.983;  152.481;   -9.710;  889.020
937.540;  149.847;  -13.990;  838.280
938.097;  150.551;  -14.040;  940.120
938.654;  153.029;  -10.310;  898.860
939.211;  154.179;  -10.560;  952.480
939.768;  151.941;  -13.900;  915.420
940.324;  153.330;  -14.760;  904.200
940.881;  157.392;  -10.370;  878.500
941.438;  163.501;   -8.260; 1021.200
941.995;  163.825;  -12.540;  992.560
942.551;  162.735;  -14.670;  875.620
943.108;  162.027;  -10.450;  937.920
943.664;  162.968;  -10.750;  869.340
944.221;  168.038;  -11.550; 1088.140
944.777;  171.361;  -14.770;  869.680
945.334;  170.158;  -12.820;  884.840
945.890;  167.901;  -10.130;  946.480
946.446;  165.590;  -13.470;  947.020
947.003;  165.432;  -12.120;  964.940
947.559;  164.611;   -9.980; 1063.040
948.115;  161.937;   -9.080; 1026.540
948.671;  159.105;  -10.830;  967.300
949.227;  157.680;  -12.440;  859.560
949.783;  157.206;  -12.910;  858.900
950.339;  159.854;  -10.270;  991.000
950.895;  160.745;  -13.630; 1023.840
951.451;  159.577;  -15.100;  925.280
952.007;  158.791;  -11.330;  998.540
952.563;  155.958;  -10.580;  937.780
953.118;  152.402;  -13.440;  904.940
953.674;  149.481;  -12.710;  935.780
954.230;  151.550;  -10.350;  949.640
954.785;  155.306;   -9.190;  936.640
955.341;  156.803;  -11.200;  998.160
955.897;  154.500;  -16.560;  834.660
956.452;  151.662;  -12.570;  953.840
957.008;  149.495;   -7.970; 1083.640
957.563;  148.519;  -11.940; 1009.540
958.118;  147.146;  -13.450;  877.700
958.674;  146.624;  -12.030;  946.780
959.229;  146.709;   -9.410; 1013.980
959.784;  144.393;  -12.000;  832.400
960.339;  140.554;  -14.780; 1001.280
960.894;  134.968;   -9.860;  963.760
961.449;  129.228;   -9.970;  859.960
962.004;  127.922;  -10.900; 1212.840
962.559;  123.520;  -13.150;  860.140
963.114;  119.964;  -13.740;  742.480
963.669;  122.526;   -9.820;  915.500
964.224;  122.376;  -13.890;  874.340
964.779;  123.330;  -12.600;  828.420
965.334;  122.750;  -10.950; 1017.860
965.888;  120.649;  -11.170;  875.360
966.443;  121.713;  -12.540;  972.380
966.998;  121.753;  -15.780;  819.460
967.552;  120.811;   -9.760;  908.380
968.107;  115.445;   -9.060;  868.300
968.661;  114.681;  -11.950;  922.440
969.216;  113.965;  -12.800;  856.280
969.770;  114.200;  -11.210;  917.200
970.324;  110.997;  -11.610;  923.140
970.879;  108.930;  -11.370;  947.180
971.433;  108.637;  -12.540;  952.720
971.987;  106.448;  -11.320;  895.340
972.541;  105.411;  -10.720;  917.100
973.095;  107.434;   -9.680; 1009.460
973.649;  106.522;  -11.440;  809.480
974.203;  105.985;  -11.210;  829.040
974.757;  106.677;  -10.240;  855.220
975.311;  106.949;  -13.720;  872.600
975.865;  107.189;  -13.770;  881.820
976.419;  105.815;  -11.690;  857.400
976.973;  106.183;   -9.510;  849.620
977.526;  106.335;  -12.620;  949.920
978.080;  102.348;  -12.010;  796.780
978.634;  100.680;  -10.170;  921.320
979.187;   96.828;   -9.020;  905.400
979.741;   96.399;   -9.820; 1018.380
980.294;   92.071;  -14.870;  789.160
980.848;   88.567;  -12.380;  717.220
981.401;   88.117;  -10.350;  816.540
981.955;   88.602;  -13.720;  844.300
982.508;   85.557;  -11.490;  746.340
983.061;   85.252;  -10.000;  915.260
983.615;   83.954;  -11.480;  798.800
984.168;   83.572;  -13.220;  770.080
984.721;   83.258;  -13.960;  880.760
985.274;   80.856;  -10.870;  867.500
985.827;   79.809;   -9.790;  834.220
986.380;   78.953;  -13.120;  721.340
986.933;   79.510;  -12.450;  864.800
987.486;   78.684;  -10.210;  861.920
988.039;   77.931;   -8.430;  863.100
988.591;   75.919;  -10.520;  893.260
989.144;   73.181;  -14.860;  737.260
989.697;   70.287;  -13.080;  758.740
990.250;   69.048;  -10.150;  858.100
990.802;   66.572;  -13.430;  755.860
991.355;   67.216;  -12.750;  974.880
991.907;   64.497;  -12.040;  864.320
992.460;   61.778;  -11.330;  753.760
993.012;   61.156;  -13.610;  749.540
993.565;   60.317;  -13.460;  711.360
994.117;   61.740;   -9.360;  950.780
994.669;   58.909;  -11.300;  701.320
995.221;   58.618;  -13.540;  791.920
995.774;   58.663;  -13.430;  787.580
996.326;   56.502;  -12.520;  740.220
996.878;   56.609;  -10.950;  838.420
997.430;   54.997;  -14.300;  699.860
997.982;   54.082;  -13.760;  750.140
998.534;   53.662;  -11.530;  739.060
999.086;   51.729;  -10.310;  738.220
999.638;   50.524;  -12.530;  661.380
1000.190;   50.161;  -11.840;  699.320
1000.741;   49.656;  -10.260;  742.700
1001.293;   49.314;   -8.860;  686.020
1001.845;   47.925;  -13.700;  676.640
1002.396;   48.624;  -12.100;  743.400
1002.948;   47.868;  -12.760;  737.400
1003.500;   46.720;  -10.380;  723.780
1004.051;   47.315;  -11.900;  907.580
1004.603;   45.919;  -12.250;  791.820
1005.154;   42.667;  -13.210;  608.980
1005.705;   42.216;  -10.950;  723.960
1006.257;   41.531;  -13.880;  707.220
1006.808;   41.838;  -12.840;  685.460
1007.359;   40.108;  -10.570;  763.240
1007.910;   38.770;   -9.620;  646.640
1008.461;   39.040;  -13.630;  732.940
1009.013;   38.250;  -17.200;  588.340
1009.564;   39.621;  -10.200;  793.520
1010.115;   36.889;  -12.570;  597.040
1010.665;   37.152;  -15.150;  602.160
1011.216;   37.447;  -14.480;  667.920
1011.767;   36.177;  -11.340;  697.920
1012.318;   36.712;   -9.780;  736.980
1012.869;   35.344;  -12.380;  679.000
1013.419;   35.923;  -15.560;  603.120
1013.970;   35.423;  -11.010;  666.640
1014.521;   34.145;  -11.610;  620.620
1015.071;   35.187;  -13.450;  670.380
1015.622;   34.944;  -13.870;  635.460
1016.172;   33.490;  -11.610;  596.820
1016.723;   33.578;  -12.120;  614.380
1017.273;   33.398;  -13.620;  604.160
1017.823;   34.078;  -14.140;  650.340
1018.374;   33.179;  -12.800;  611.760
1018.924;   33.046;  -12.340;  716.880
1019.474;   32.975;  -11.410;  718.880
1020.024;   31.772;  -14.770;  657.580
1020.574;   32.531;   -9.780;  726.160
1021.124;   32.691;   -8.560;  673.580
1021.674;   30.480;  -15.190;  559.120
1022.224;   33.560;  -13.530;  708.940
1022.774;   31.641;  -13.280;  668.820
1023.324;   31.879;  -10.690;  753.520
1023.874;   33.479;  -10.240;  875.760
1024.423;   31.547;  -12.540;  613.700
1024.973;   30.950;  -10.010;  610.760
1025.523;   29.185;  -10.550;  620.960
1026.072;   29.024;  -13.560;  606.420
1026.622;   29.488;  -15.120;  675.740
1027.172;   29.993;  -11.260;  715.660
1027.721;   29.330;  -11.410;  601.220
1028.270;   30.268;  -13.530;  663.400
1028.820;   29.874;  -13.680;  638.080
1029.369;   28.703;  -13.520;  612.700
1029.918;   29.133;  -10.980;  649.840
1030.468;   28.760;  -13.530;  564.780
1031.017;   29.193;  -13.170;  634.800
1031.566;   27.482;  -12.200;  608.900
1032.115;   28.628;   -9.960;  694.500
1032.664;   26.896;  -13.210;  596.480
1033.213;   28.863;  -12.500;  735.420
1033.762;   27.053;  -11.910;  635.620
1034.311;   27.102;   -9.640;  677.220
1034.860;   27.281;  -13.310;  691.000
1035.408;   27.768;  -11.830;  722.720
1035.957;   27.760;  -12.000;  719.540
1036.506;   25.271;  -11.690;  530.800
1037.055;   28.086;  -10.990;  844.320
1037.603;   26.139;  -15.120;  664.000
1038.152;   24.154;  -12.450;  534.760
1038.700;   25.471;  -10.560;  585.740
1039.249;   25.003;  -11.080;  681.220
1039.797;   25.945;  -12.540;  633.360
1040.345;   25.671;  -11.920;  705.420
1040.894;   24.992;  -11.410;  625.300
1041.442;   25.226;  -14.320;  632.200
1041.990;   24.414;  -16.240;  559.160
1042.538;   23.853;  -11.680;  536.180
1043.087;   24.117;  -10.760;  570.860
1043.635;   25.776;  -11.850;  670.500
1044.183;   24.069;  -15.480;  586.400
1044.731;   22.794;  -11.770;  576.000
1045.279;   23.334;  -13.090;  674.920
1045.827;   25.428;  -12.440;  892.400
1046.374;   22.793;  -13.840;  515.420
1046.922;   22.023;  -13.220;  590.580
1047.470;   23.432;  -10.230;  691.300
1048.018;   23.359;  -14.590;  647.960
1048.565;   24.445;  -12.050;  708.600
1049.113;   21.895;  -11.650;  557.000
1049.660;   21.892;  -10.510;  629.660
1050.208;   22.746;  -13.310;  675.640
1050.755;   21.880;  -15.900;  606.580
1051.303;   22.925;  -11.430;  686.820
1051.850;   21.662;   -8.480;  635.120
1052.397;   20.101;  -15.010;  473.960
1052.945;   21.466;  -13.960;  617.760
1053.492;   22.284;  -13.150;  741.840
1054.039;   21.844;   -9.630;  720.180
1054.586;   20.864;  -13.680;  557.240
1055.133;   22.448;  -14.570;  693.140
1055.680;   21.395;  -13.820;  646.620
1056.227;   20.359;  -11.730;  542.780
1056.774;   22.468;  -12.480;  794.980
1057.321;   20.331;  -13.930;  523.260
1057.868;   19.764;  -11.690;  651.320
1058.415;   20.140;   -9.520;  651.980
1058.961;   20.552;  -13.160;  678.940
1059.508;   19.901;  -12.920;  643.820
1060.055;   19.285;  -11.920;  581.780
1060.601;   20.393;  -11.500;  624.300
1061.148;   19.520;  -14.330;  616.820
1061.694;   19.212;  -16.870;  592.580
1062.241;   19.268;  -10.330;  596.320
1062.787;   18.996;  -10.620;  663.140
1063.334;   21.146;  -10.110;  808.560
1063.880;   19.615;  -13.400;  668.360
1064.426;   19.038;  -10.680;  706.820
1064.972;   17.916;   -9.920;  601.340
1065.518;   17.247;  -10.980;  566.640
1066.065;   18.674;  -14.890;  624.460
1066.611;   17.407;  -12.870;  598.800
1067.157;   18.529;  -12.950;  641.860
1067.703;   18.060;  -13.540;  668.480
1068.249;   18.442;  -13.540;  605.220
1068.794;   17.953;  -12.600;  626.880
1069.340;   16.997;  -10.620;  578.960
1069.886;   17.728;  -12.830;  590.700
1070.432;   17.051;  -14.870;  541.720
1070.977;   15.636;  -11.980;  601.080
1071.523;   16.566;   -8.200;  573.060
1072.068;   17.052;  -12.330;  582.000
1072.614;   16.914;  -16.370;  527.760
1073.160;   16.988;  -11.100;  687.040
1073.705;   15.856;  -10.480;  572.520
1074.250;   16.108;  -14.520;  559.900
1074.796;   17.053;  -11.460;  655.160
1075.341;   17.433;  -11.950;  664.100
1075.886;   15.912;  -11.460;  594.240
1076.431;   15.401;  -13.770;  649.880
1076.976;   15.743;  -12.680;  639.220
1077.521;   14.579;  -13.170;  583.080
1078.067;   14.247;  -10.860;  579.400
1078.612;   15.096;  -13.920;  661.620
1079.156;   15.183;  -13.880;  601.540
1079.701;   15.681;  -13.120;  693.260
1080.246;   15.890;   -9.940;  696.300
1080.791;   15.611;  -14.740;  625.020
1081.336;   15.666;  -13.750;  659.320
1081.880;   15.377;  -13.400;  649.680
1082.425;   14.009;  -12.220;  573.480
1082.970;   16.020;  -11.610;  717.040
1083.514;   14.587;  -13.580;  597.000
1084.059;   13.702;  -12.810;  586.720
1084.603;   13.589;  -12.320;  565.840
1085.147;   14.115;  -13.190;  645.220
1085.692;   14.715;  -12.480;  716.800
1086.236;   12.659;  -13.020;  503.140
1086.780;   14.934;   -9.190;  751.440
1087.325;   14.060;  -12.480;  654.620
1087.869;   14.311;  -12.450;  610.700
1088.413;   13.581;  -12.240;  705.040
1088.957;   12.651;   -9.020;  543.400
1089.501;   14.238;  -10.320;  766.640
1090.045;   13.847;  -12.720;  726.480
1090.589;   11.074;  -13.690;  569.920
1091.133;   12.665;  -10.020;  673.340
1091.676;   13.175;  -12.330;  591.940
1092.220;   12.059;  -14.970;  600.920
1092.764;   13.079;  -12.430;  706.960
1093.307;   12.342;   -9.800;  673.780
1093.851;   11.494;  -14.970;  556.540
1094.395;   12.715;  -15.310;  683.140
1094.938;   11.563;  -10.370;  632.520
1095.482;   11.171;  -11.050;  559.800
1096.025;   12.584;  -11.840;  710.880
1096.568;   13.436;  -12.840;  779.280
1097.112;   10.083;  -14.700;  508.180
1097.655;   11.920;   -8.720;  603.000
1098.198;   10.165;  -13.610;  600.180
1098.741;   10.992;  -13.350;  612.860
1099.285;   11.526;  -11.230;  657.300
1099.828;    9.901;  -11.840;  439.400
1100.371;   10.858;  -10.840;  608.160
1100.914;   10.988;  -14.190;  682.660
1101.457;   10.640;  -11.240;  679.900
1101.999;    9.673;  -11.270;  584.680
1102.542;   10.574;  -11.480;  641.440
1103.085;   10.266;  -11.750;  658.500
1103.628;   10.739;  -11.400;  762.060
1104.170;    9.914;  -10.490;  588.280
1104.713;   10.331;  -10.600;  646.700
1105.256;   10.206;  -14.360;  557.440
1105.798;    8.892;  -13.210;  499.980
1106.341;   11.235;  -10.270;  728.900
1106.883;    9.410;  -12.200;  521.340
1107.425;    9.776;  -13.110;  668.180
1107.968;    8.830;  -12.840;  612.380
1108.510;    9.744;   -6.480;  684.960
1109.052;    7.771;  -13.940;  612.620
1109.594;    8.963;  -13.690;  554.440
1110.136;    9.720;  -11.880;  643.220
1110.679;    7.782;   -9.500;  633.080
1111.221;    8.875;  -14.160;  604.460
1111.763;    8.145;  -13.980;  559.220
1112.304;    7.985;  -13.880;  547.140
1112.846;    8.749;  -12.210;  666.240
1113.388;   11.234;  -11.390;  942.180
1113.930;    9.204;  -14.540;  694.200
1114.472;    7.611;  -12.640;  606.540
1115.013;    6.363;  -11.620;  551.280
1115.555;    7.279;  -13.640;  587.100
1116.097;    6.511;  -15.380;  579.480
1116.638;    7.510;  -12.640;  684.600
1117.180;    7.474;   -9.850;  667.740
1117.721;    7.443;  -13.690;  568.580
1118.262;    8.507;  -12.680;  677.960
1118.804;    7.853;  -12.530;  637.340
1119.345;    6.639;  -11.690;  578.400
1119.886;    8.072;  -13.380;  704.040
1120.427;    7.169;  -14.070;  589.020
1120.969;    6.038;  -13.500;  597.920
1121.510;    6.224;  -11.480;  563.060
1122.051;    7.323;  -12.830;  723.580
1122.592;    6.004;  -14.290;  655.420
1123.133;    5.453;  -12.400;  547.940
1123.673;    6.826;  -10.130;  706.480
1124.214;    6.082;  -12.930;  612.460
1124.755;    6.809;  -14.380;  639.460
1125.296;    6.610;  -14.000;  627.320
1125.836;    6.562;  -10.070;  691.500
1126.377;    5.539;  -12.640;  599.660
1126.918;    6.586;  -12.960;  614.980
1127.458;    4.860;  -13.350;  622.220
1127.999;    5.933;  -10.750;  656.980
1128.539;    6.106;  -12.350;  694.240
1129.079;    5.156;  -14.860;  632.720
1129.620;    4.225;  -13.840;  558.100
1130.160;    4.278;  -12.330;  539.480
1130.700;    5.228;  -14.530;  640.840
1131.240;    5.653;  -12.530;  643.700
1131.781;    5.630;  -14.450;  619.680
1132.321;    4.797;   -9.790;  599.120
1132.861;    4.222;  -14.860;  564.200
1133.401;    3.935;  -14.290;  593.940
1133.941;    4.477;  -11.750;  626.280
1134.481;    3.879;   -9.920;  597.580
1135.020;    3.468;  -12.290;  609.160
1135.560;    4.874;  -11.650;  674.940
1136.100;    3.235;  -16.270;  501.160
1136.640;    3.317;  -10.890;  510.480
1137.179;    3.521;  -14.180;  537.960
1137.719;    4.365;  -16.250;  605.400
1138.258;    3.819;  -14.230;  587.360
1138.798;    3.693;   -9.090;  663.780
1139.337;    2.473;  -15.130;  482.840
1139.877;    4.199;  -13.680;  642.360
1140.416;    6.173;  -11.320;  878.060
1140.955;    2.525;  -10.860;  535.380
1141.494;    3.559;  -12.920;  669.280
1142.034;    3.393;  -13.930;  583.520
1142.573;    3.049;  -11.440;  646.280
1143.112;    1.663;  -12.000;  553.480
1143.651;    3.023;  -13.670;  536.480
1144.190;    3.998;  -12.730;  691.640
1144.729;    2.852;  -14.560;  607.420
1145.267;    2.706;  -11.830;  584.900
1145.806;    3.979;  -12.230;  637.040
1146.345;    3.164;  -14.130;  635.020
1146.884;    2.062;  -11.590;  622.500
1147.422;    1.416;  -12.550;  533.060
1147.961;    4.053;  -11.180;  708.460
1148.500;    3.188;  -11.510;  669.720
1149.038;    3.026;  -11.640;  632.500
1149.577;    2.481;  -10.130;  698.640
1150.115;    0.627;  -13.970;  452.280
1150.653;    2.605;  -14.520;  607.340
1151.192;    2.077;  -12.810;  552.920
1151.730;    2.231;   -9.100;  652.560
1152.268;    1.391;  -12.220;  589.520
1152.806;    1.685;  -14.140;  571.180
1153.344;    0.747;  -12.350;  577.640
1153.882;    1.733;   -8.980;  600.060
1154.421;    0.157;  -15.190;  470.620
1154.958;    0.989;  -15.210;  595.240
1155.496;    2.319;  -12.850;  645.280
1156.034;    1.168;   -9.940;  721.880
1156.572;    2.718;  -13.570;  667.060
1157.110;    0.346;  -14.590;  473.940
1157.647;    2.214;  -13.030;  676.960
1158.185;    0.489;  -12.140;  564.320
1158.723;   -0.755;  -14.390;  509.200
1159.260;    1.008;  -14.090;  701.700
1159.798;    1.356;  -11.920;  658.160
1160.335;    0.325;  -11.110;  631.820

