
Integration time [ms]:   3.882
Averaging Nr. [scans]: 1000
Smoothing Nr. [pixels]: 0
Data measured with spectrometer [name]: 7414430SP
Wave   ;Sample   ;Dark     ;Reference
[nm]   ;[counts] ;[counts] ;[counts] 

288.544;  125.906;   10.292;  793.890
289.143;  128.111;    4.564;  681.602
289.742;  131.077;    6.144;  828.814
290.341;  118.892;    4.396;  789.841
290.940;  109.265;    0.938;  730.702
291.538;  109.692;   -0.684;  881.108
292.137;  108.114;   -2.845;  792.581
292.736;  113.490;   -0.144;  975.101
293.335;  109.724;   -6.352;  735.086
293.934;  110.777;   -7.642;  781.677
294.532;  110.831;   -4.992; 1031.958
295.131;   97.480;   -5.478;  834.394
295.730;   96.913;   -6.549;  809.588
296.328;   94.506;   -9.558;  783.442
296.927;   94.945;   -8.118;  779.652
297.525;   96.730;   -6.908;  781.236
298.124;   87.259;   -9.195;  654.009
298.722;   90.981;   -8.198;  761.933
299.321;   88.551;   -8.817;  708.597
299.919;   86.883;   -7.716;  751.918
300.518;   83.542;  -10.745;  689.338
301.116;   84.495;   -9.647;  691.381
301.715;   84.911;  -10.828;  730.222
302.313;   84.702;   -6.087;  704.943
302.911;   79.960;   -6.824;  733.830
303.509;   85.335;   -8.807;  925.627
304.108;   82.691;   -8.198;  760.383
304.706;   82.018;   -6.218;  801.664
305.304;   77.512;   -7.185;  796.707
305.902;   82.697;   -8.568;  784.484
306.500;   78.779;   -7.737;  728.200
307.098;   76.710;   -6.026;  746.560
307.696;   75.360;   -7.176;  780.432
308.294;   76.130;   -8.656;  731.359
308.892;   77.838;   -6.838;  759.769
309.490;   73.769;   -2.596;  712.161
310.088;   72.648;   -4.485;  788.444
310.686;   77.001;   -3.907;  821.749
311.284;   71.988;   -2.806;  766.040
311.882;   70.506;   -2.845;  731.225
312.480;   67.191;   -3.274;  697.167
313.078;   69.453;   -3.645;  808.331
313.675;   69.227;   -4.997;  691.600
314.273;   64.868;   -0.894;  797.837
314.871;   65.829;   -2.854;  589.829
315.468;   62.249;   -3.644;  652.090
316.066;   66.039;   -3.947;  694.427
316.664;   58.741;   -1.824;  656.351
317.261;   64.500;    1.565;  910.128
317.859;   59.220;   -3.955;  768.735
318.456;   60.727;   -2.886;  830.096
319.054;   56.939;   -0.995;  787.828
319.651;   55.845;   -1.765;  759.928
320.249;   54.706;   -3.685;  810.188
320.846;   52.689;   -3.736;  714.286
321.443;   51.281;   -2.065;  832.135
322.041;   48.106;   -5.635;  812.315
322.638;   46.233;   -5.985;  701.456
323.235;   47.855;   -6.677;  665.683
323.833;   46.475;   -3.497;  740.354
324.430;   40.931;   -6.756;  615.900
325.027;   43.288;   -7.647;  876.855
325.624;   43.005;   -7.598;  644.532
326.221;   40.918;   -5.848;  689.717
326.818;   40.385;   -5.777;  818.332
327.415;   42.975;   -8.769;  748.828
328.012;   42.226;   -6.299;  690.585
328.609;   39.921;   -6.639;  731.389
329.206;   38.454;   -6.358;  778.621
329.803;   37.963;   -8.698;  737.841
330.400;   38.789;   -8.379;  704.260
330.997;   40.897;   -6.178;  817.147
331.594;   37.777;   -5.646;  788.185
332.191;   43.086;   -6.928;  728.722
332.787;   44.779;   -6.057;  844.463
333.384;   43.016;   -6.445;  763.093
333.981;   39.174;   -8.002;  815.687
334.578;   41.865;   -8.443;  708.378
335.174;   43.395;   -6.053;  731.469
335.771;   44.643;   -5.791;  836.456
336.367;   40.862;   -6.570;  710.631
336.964;   43.385;   -6.741;  793.266
337.561;   44.393;   -5.710;  731.112
338.157;   41.180;   -3.928;  911.916
338.754;   36.554;   -5.577;  796.589
339.350;   35.215;   -9.667;  722.493
339.946;   39.380;   -5.269;  773.135
340.543;   31.722;   -4.485;  846.136
341.139;   25.513;   -7.584;  720.836
341.735;   23.248;   -8.553;  772.593
342.332;   22.673;   -4.984;  691.472
342.928;   24.167;   -3.475;  795.394
343.524;   18.458;   -6.653;  761.684
344.120;   14.197;   -7.173;  738.562
344.716;   18.007;   -4.385;  723.717
345.313;   15.622;   -3.565;  795.342
345.909;   11.612;   -7.495;  627.336
346.505;   13.311;   -8.276;  740.247
347.101;   14.191;   -5.697;  827.864
347.697;   14.952;   -4.767;  785.398
348.293;    9.672;   -7.226;  627.244
348.889;   10.307;   -7.547;  745.914
349.485;    9.630;   -9.147;  688.205
350.081;   11.685;   -6.568;  772.592
350.676;    6.358;   -6.516;  691.606
351.272;   11.029;   -7.378;  809.530
351.868;   10.842;   -6.759;  780.497
352.464;    8.545;   -4.798;  723.932
353.059;    4.770;   -7.977;  646.017
353.655;    7.908;   -8.769;  777.063
354.251;    8.487;   -5.920;  759.845
354.846;    3.565;   -7.647;  740.646
355.442;    1.711;   -6.956;  753.071
356.038;    3.484;   -9.928;  751.708
356.633;    3.577;   -7.698;  728.594
357.229;    1.775;   -6.307;  724.757
357.824;    0.724;   -7.647;  703.600
358.420;   -0.874;  -10.047;  679.726
359.015;    0.028;   -7.458;  695.357
359.610;    0.600;   -5.748;  763.920
360.206;   -5.410;   -9.346;  603.240
360.801;   -2.465;  -11.268;  646.503
361.396;   -0.093;   -8.789;  725.975
361.992;   -4.006;   -6.347;  668.220
362.587;   -5.888;   -6.476;  670.160
363.182;   -4.892;   -9.457;  689.631
363.777;   -3.906;   -7.147;  738.242
364.372;   -3.269;   -5.507;  737.314
364.967;   -7.269;   -6.386;  680.744
365.563;   -3.086;   -7.858;  815.567
366.158;   -5.835;   -8.517;  685.161
366.753;   -5.050;   -8.728;  649.263
367.348;   -6.703;   -7.677;  746.056
367.942;   -6.461;  -10.387;  697.298
368.537;   -8.546;   -7.187;  754.245
369.132;   -7.483;   -8.587;  703.428
369.727;  -11.890;   -8.606;  638.079
370.322;  -10.303;  -10.426;  580.186
370.917;  -10.911;   -5.776;  710.646
371.511;   -6.865;   -6.007;  861.834
372.106;  -10.449;   -6.686;  776.964
372.701;  -14.305;   -9.335;  585.988
373.296;   -7.956;   -6.777;  863.135
373.890;  -13.124;   -7.546;  647.840
374.485;  -14.985;   -8.755;  691.199
375.079;  -10.918;   -9.797;  738.685
375.674;   -8.929;   -6.327;  812.970
376.268;  -13.873;   -9.046;  691.759
376.863;  -19.039;   -7.993;  580.327
377.457;  -13.488;   -9.206;  662.490
378.052;  -15.010;   -5.345;  764.884
378.646;  -14.971;   -5.605;  741.167
379.240;  -15.725;   -6.825;  721.176
379.835;  -15.136;  -10.476;  636.978
380.429;  -17.130;   -8.676;  562.557
381.023;  -16.920;   -4.945;  779.205
381.617;  -19.520;   -8.094;  680.106
382.212;  -15.781;  -10.646;  685.303
382.806;  -15.256;   -8.136;  760.690
383.400;  -18.686;   -7.855;  672.281
383.994;  -19.165;   -8.125;  664.870
384.588;  -15.104;   -7.637;  697.701
385.182;  -14.626;   -7.458;  726.624
385.776;  -14.795;   -6.277;  706.875
386.370;  -18.701;   -7.485;  681.968
386.964;  -17.392;   -9.416;  684.155
387.558;  -16.722;   -8.518;  598.360
388.152;  -19.326;   -7.096;  681.959
388.745;  -16.839;   -7.656;  814.707
389.339;  -15.306;   -8.927;  747.642
389.933;  -15.500;   -9.538;  695.370
390.527;  -14.931;   -5.857;  859.029
391.120;  -21.462;   -9.455;  595.318
391.714;  -18.858;   -9.746;  711.633
392.308;  -15.706;   -7.857;  780.253
392.901;  -19.626;   -9.106;  642.460
393.495;  -20.753;  -10.365;  595.414
394.089;  -18.077;   -9.696;  760.452
394.682;  -19.604;   -7.016;  697.188
395.275;  -19.113;   -8.466;  719.927
395.869;  -20.785;   -8.985;  667.314
396.462;  -19.287;  -11.496;  616.609
397.056;  -15.288;   -7.838;  776.621
397.649;  -20.481;   -6.895;  731.575
398.242;  -16.671;   -5.017;  712.645
398.836;  -16.540;   -8.787;  766.408
399.429;  -17.806;   -8.967;  631.041
400.022;  -20.730;   -8.815;  665.902
400.615;  -18.594;   -6.276;  805.609
401.208;  -16.495;   -8.407;  691.451
401.802;  -19.412;   -7.296;  699.329
402.395;  -19.882;   -7.585;  683.502
402.988;  -20.331;   -8.015;  696.627
403.581;  -17.404;   -9.577;  646.878
404.174;  -14.639;   -7.588;  686.568
404.767;  -18.315;   -7.906;  638.583
405.360;  -20.157;   -7.875;  621.445
405.953;  -14.969;   -8.127;  759.034
406.545;  -13.494;   -7.198;  725.342
407.138;  -18.839;   -8.916;  618.350
407.731;  -16.947;   -9.767;  613.303
408.324;  -13.706;  -10.659;  660.554
408.917;  -13.985;   -8.068;  681.864
409.509;  -16.351;   -9.837;  740.396
410.102;  -17.870;   -8.146;  643.948
410.695;  -11.979;   -7.969;  665.758
411.287;  -12.888;   -8.579;  599.821
411.880;  -14.270;   -6.968;  585.421
412.472;  -16.449;   -9.487;  613.092
413.065;  -13.308;  -10.338;  629.408
413.657;  -12.321;   -9.169;  576.678
414.250;  -10.889;  -10.119;  646.681
414.842;  -12.710;   -9.938;  676.353
415.434;  -11.086;  -10.409;  570.463
416.027;   -6.751;   -9.591;  652.196
416.619;   -8.554;   -7.379;  713.400
417.211;   -9.271;   -9.159;  599.352
417.804;   -5.050;   -9.191;  628.499
418.396;   -9.859;   -8.159;  607.643
418.988;   -6.859;   -6.960;  659.238
419.580;  -10.578;  -11.389;  568.276
420.172;   -9.159;  -13.460;  536.196
420.764;   -3.659;  -10.701;  672.482
421.356;   -5.590;   -8.961;  636.898
421.948;   -5.284;   -9.770;  677.661
422.540;   -1.116;   -8.832;  680.027
423.132;   -2.157;   -8.153;  600.641
423.724;   -5.157;   -8.481;  561.267
424.316;   -2.780;   -9.261;  621.345
424.908;    0.314;   -9.643;  591.517
425.500;    1.034;   -8.663;  647.978
426.092;    2.633;   -8.503;  648.268
426.683;    1.140;  -10.522;  684.836
427.275;    3.803;  -11.734;  641.471
427.867;    5.387;  -10.264;  668.948
428.458;    5.787;   -7.644;  732.344
429.050;    5.387;   -7.853;  680.749
429.642;    6.878;   -8.904;  743.124
430.233;    6.978;  -10.795;  569.356
430.825;    7.955;   -7.665;  724.809
431.416;    5.907;   -8.843;  698.241
432.008;    9.256;   -9.885;  651.723
432.599;   10.178;   -9.966;  656.073
433.190;    6.910;   -9.164;  637.670
433.782;    7.281;   -8.584;  590.395
434.373;   14.825;   -8.296;  884.765
434.964;   12.409;   -9.896;  602.920
435.556;   10.273;   -8.255;  634.537
436.147;   13.768;   -8.075;  758.490
436.738;   13.450;   -9.716;  701.099
437.329;   17.940;   -7.318;  721.723
437.920;   11.527;   -6.694;  666.688
438.511;   11.281;   -9.644;  564.526
439.103;   18.618;   -9.427;  623.998
439.694;   20.096;  -10.748;  681.583
440.285;   20.770;   -7.997;  764.432
440.876;   20.091;  -10.046;  845.738
441.466;   18.522;  -13.467;  575.162
442.057;   23.294;   -9.329;  665.814
442.648;   23.223;   -7.707;  746.255
443.239;   21.064;   -9.017;  620.477
443.830;   26.277;  -10.279;  704.958
444.421;   27.112;  -12.630;  655.474
445.011;   24.417;   -8.697;  693.619
445.602;   24.660;   -7.787;  743.126
446.193;   25.522;  -13.329;  488.117
446.783;   31.072;   -9.171;  640.397
447.374;   26.252;   -7.457;  692.759
447.964;   27.187;   -9.277;  713.770
448.555;   34.970;   -9.041;  822.742
449.145;   31.290;   -8.969;  662.853
449.736;   32.445;   -6.809;  803.179
450.326;   32.393;   -7.229;  713.626
450.917;   36.978;  -11.391;  675.324
451.507;   35.693;   -9.501;  600.661
452.097;   37.227;   -8.460;  746.267
452.688;   38.263;  -10.080;  742.160
453.278;   37.911;  -12.861;  566.840
453.868;   42.614;   -8.372;  793.550
454.458;   40.461;   -8.131;  651.141
455.048;   41.444;   -8.520;  711.783
455.639;   42.233;  -13.632;  567.096
456.229;   45.731;  -10.143;  710.694
456.819;   48.615;   -9.163;  751.158
457.409;   49.052;   -8.652;  773.993
457.999;   51.059;   -9.933;  737.505
458.589;   51.079;  -10.363;  686.606
459.179;   51.057;  -10.633;  717.658
459.769;   49.315;  -12.442;  627.099
460.358;   53.360;   -9.844;  797.262
460.948;   53.544;   -9.924;  689.503
461.538;   55.227;  -10.484;  660.677
462.128;   53.285;  -10.703;  664.934
462.717;   59.278;  -11.486;  710.326
463.307;   62.819;  -10.767;  705.846
463.897;   59.067;   -8.814;  656.942
464.486;   57.733;   -8.182;  837.128
465.076;   62.552;   -9.985;  733.776
465.666;   66.150;  -10.447;  652.900
466.255;   64.376;   -7.754;  785.651
466.845;   63.494;  -10.884;  666.749
467.434;   67.014;  -12.525;  725.873
468.023;   66.495;  -11.456;  658.357
468.613;   64.789;   -9.173;  713.946
469.202;   68.880;   -9.306;  646.507
469.791;   73.353;   -8.917;  737.811
470.381;   74.689;   -9.657;  742.813
470.970;   75.184;   -9.947;  711.099
471.559;   75.036;   -9.256;  733.291
472.148;   77.199;  -13.397;  675.737
472.738;   80.102;   -9.928;  765.466
473.327;   79.782;  -10.897;  637.529
473.916;   79.081;   -8.526;  737.446
474.505;   83.856;  -11.078;  751.703
475.094;   86.776;   -9.559;  806.570
475.683;   86.342;   -8.838;  797.699
476.272;   87.406;  -10.198;  730.632
476.861;   89.957;  -11.489;  706.754
477.449;   96.183;  -10.721;  728.487
478.038;   90.829;   -9.818;  692.513
478.627;   91.671;   -9.887;  714.852
479.216;   97.833;  -10.030;  769.441
479.805;  101.347;   -9.401;  783.375
480.393;  101.681;   -5.739; 1008.945
480.982;  100.114;   -7.838;  874.501
481.571;  106.195;   -9.111;  858.333
482.159;  106.482;  -10.601;  705.386
482.748;  106.891;   -8.500;  821.385
483.336;  111.188;   -9.241;  858.209
483.925;  110.809;  -10.440;  774.373
484.513;  118.515;  -11.063;  758.962
485.102;  116.015;   -9.540;  810.965
485.690;  124.806;   -6.742; 1011.050
486.278;  126.152;   -8.442;  979.329
486.867;  126.135;  -10.472;  809.662
487.455;  128.178;   -8.811;  898.229
488.043;  130.175;  -10.721;  748.361
488.631;  138.473;  -10.393; 1005.079
489.220;  141.583;  -10.843;  908.626
489.808;  141.689;  -10.572;  741.415
490.396;  150.009;  -10.482;  914.645
490.984;  156.591;  -11.542;  830.161
491.572;  166.548;   -8.463;  940.315
492.160;  170.295;   -8.491;  919.081
492.748;  179.900;   -9.681;  884.341
493.336;  197.376;  -10.493; 1019.693
493.924;  223.293;   -9.354;  958.077
494.512;  252.762;   -9.132; 1066.638
495.100;  286.722;   -9.001; 1103.280
495.687;  336.105;  -11.924; 1206.373
496.275;  398.727;  -11.193; 1150.796
496.863;  491.004;   -9.241; 1281.171
497.451;  594.874;  -11.341; 1386.805
498.038;  687.679;  -11.364; 1556.729
498.626;  793.158;   -8.104; 1741.407
499.214;  964.899;   -8.842; 2016.609
499.801; 1141.177;  -10.112; 2220.633
500.389; 1326.722;  -11.953; 2312.494
500.976; 1567.194;  -10.023; 2744.849
501.564; 1855.002;   -8.662; 3148.565
502.151; 2201.365;  -10.531; 3515.999
502.738; 2557.530;  -13.853; 3971.274
503.326; 3077.435;  -10.794; 4403.796
503.913; 3622.060;   -8.663; 5161.749
504.500; 3954.924;  -10.172; 5986.420
505.088; 4268.550;  -13.472; 6381.201
505.675; 4922.405;  -10.924; 6925.547
506.262; 5682.089;   -8.551; 7619.060
506.849; 6463.594;  -10.523; 8733.969
507.436; 7096.643;  -10.834; 9790.121
508.023; 7313.723;   -9.093; 9985.472
508.610; 7711.933;  -10.073;10434.618
509.197; 8267.694;   -9.500;11198.435
509.784; 9516.521;  -13.242;12391.194
510.371;10287.581;  -10.964;13603.713
510.958;10135.087;   -9.772;14426.586
511.545;11149.839;   -7.842;15243.775
512.132;11438.125;  -12.184;15945.876
512.719;11534.553;   -9.733;16340.369
513.305;13328.593;   -9.172;18011.766
513.892;14874.683;   -9.581;19754.971
514.479;16610.014;  -10.253;20967.805
515.066;18746.955;   -8.183;22299.793
515.652;20032.371;   -9.253;22908.660
516.239;21009.273;   -9.412;23798.875
516.825;23481.240;  -11.153;25567.275
517.412;23520.285;  -10.263;28154.959
517.998;23701.023;   -8.802;28344.111
518.585;23395.982;  -10.401;27134.219
519.171;23209.570;  -12.744;27268.576
519.758;24962.215;  -11.793;28964.129
520.344;27089.799;   -8.912;30664.494
520.930;26884.586;  -10.901;32550.605
521.516;27461.945;  -12.034;35422.895
522.103;28523.857;  -10.473;38280.004
522.689;29958.555;   -8.311;37835.117
523.275;33711.441;  -10.691;37288.613
523.861;35267.879;  -11.193;37281.395
524.447;35857.789;  -11.484;37846.949
525.033;35861.570;   -7.702;38321.949
525.619;35538.137;  -11.241;38579.285
526.205;36604.422;  -12.152;40622.875
526.791;36178.168;  -11.423;42258.836
527.377;33288.363;   -7.981;42966.902
527.963;33610.137;   -9.450;42018.949
528.549;37240.836;  -11.351;42476.828
529.135;39174.930;  -10.202;41854.852
529.721;38169.965;   -8.672;41237.711
530.306;36011.316;   -9.111;41259.445
530.892;36670.793;  -11.252;41506.047
531.478;37928.914;  -10.432;43559.613
532.063;39689.852;  -10.721;47695.563
532.649;41329.172;   -7.450;50808.324
533.235;42000.977;  -11.811;51787.500
533.820;41215.703;   -9.383;52145.035
534.406;38164.336;   -9.400;51133.488
534.991;33762.676;   -8.861;49996.805
535.576;31395.229;  -10.612;48882.852
536.162;34074.121;   -7.322;46942.285
536.747;40604.539;   -9.360;45711.746
537.333;46340.027;  -10.450;48510.180
537.918;49458.266;  -12.610;50439.891
538.503;51283.070;  -12.132;50863.711
539.088;48624.758;  -10.831;50906.922
539.673;45555.434;  -11.220;52621.965
540.259;47058.598;  -11.481;52368.094
540.844;50260.414;  -11.462;50879.109
541.429;51942.453;   -7.869;52077.777
542.014;52679.125;  -11.859;52716.695
542.599;52138.438;  -11.061;52363.281
543.184;51291.152;  -12.300;53187.137
543.769;50737.125;   -9.369;54697.605
544.354;50873.941;  -12.020;53913.914
544.938;47857.027;  -10.350;49680.164
545.523;45030.367;  -10.841;47386.277
546.108;46457.117;   -8.579;49151.949
546.693;49020.668;   -8.818;51384.637
547.278;49964.906;  -11.331;51853.254
547.862;46445.461;  -10.292;51173.750
548.447;42385.781;   -8.349;51691.395
549.031;43433.469;  -10.838;52456.703
549.616;48864.172;  -11.681;52714.516
550.201;52336.754;  -11.140;52414.598
550.785;50306.633;   -8.649;52355.059
551.370;49909.863;  -11.889;54589.453
551.954;50070.535;  -11.239;58267.348
552.538;49815.391;   -8.850;59062.176
553.123;51196.012;  -10.829;58115.285
553.707;51512.469;   -8.887;56556.285
554.291;50189.063;  -10.430;56201.668
554.876;48153.426;   -9.799;55335.762
555.460;49223.965;  -10.018;54155.703
556.044;50470.809;   -7.307;53721.484
556.628;47460.191;  -12.229;53731.016
557.212;44189.613;   -9.820;54312.531
557.796;43615.164;   -9.109;53797.773
558.380;45805.270;   -9.707;56145.984
558.964;44712.059;  -10.980;57277.930
559.548;44946.824;  -12.010;56459.641
560.132;48355.973;   -7.928;54434.543
560.716;50058.234;  -10.247;54800.617
561.300;49688.969;  -11.250;57606.945
561.884;51226.008;  -10.568;58972.445
562.467;49692.789;   -9.727;57327.570
563.051;48351.527;  -11.847;54962.434
563.635;47333.684;  -10.747;52594.473
564.219;44030.770;  -13.108;50610.410
564.802;40719.508;  -11.417;49551.180
565.386;41753.070;  -10.457;48370.953
565.969;43525.574;   -8.959;48178.871
566.553;43009.051;  -10.328;49957.305
567.136;41627.797;  -10.257;50369.594
567.720;41578.918;  -10.186;49492.004
568.303;41875.199;  -10.027;50616.352
568.887;42781.887;  -10.397;50727.148
569.470;40890.535;   -8.185;51698.379
570.053;39597.484;  -11.596;52122.078
570.637;39363.707;  -11.378;52536.438
571.220;39231.539;   -9.138;51186.098
571.803;38580.066;   -7.675;51032.762
572.386;37132.109;   -8.976;49609.887
572.969;34847.160;  -12.477;48285.926
573.552;35785.273;   -9.767;47624.285
574.135;36329.770;   -8.175;45498.641
574.718;32934.547;  -11.096;41970.434
575.301;31093.387;  -11.966;41447.137
575.884;29252.227;  -12.836;40923.836
576.467;33251.473;   -9.116;45267.723
577.050;34227.320;  -10.536;48175.543
577.633;35336.281;  -11.027;47729.328
578.216;36201.188;   -9.946;47579.793
578.799;36092.395;   -9.645;47820.996
579.381;37047.461;   -9.446;48115.551
579.964;38749.387;  -12.217;47333.766
580.547;39597.508;  -10.586;46668.969
581.129;39614.277;   -8.374;44466.141
581.712;37304.891;  -10.434;44164.922
582.294;35406.730;  -10.896;46477.855
582.877;35547.387;   -8.906;48244.254
583.459;36350.582;   -9.994;47437.895
584.042;37100.348;  -10.084;46943.219
584.624;37442.035;  -13.534;46792.227
585.206;35495.199;  -12.716;46557.250
585.789;35647.223;  -11.614;45793.773
586.371;33712.137;  -10.203;43836.391
586.953;31030.844;  -10.314;42972.492
587.536;31630.209;   -9.776;42487.211
588.118;33218.828;   -9.821;42086.414
588.700;34434.113;  -10.073;43389.930
589.282;32893.473;  -12.395;43646.039
589.864;32005.752;  -11.514;43438.109
590.446;32062.271;  -10.803;43151.926
591.028;31468.367;  -11.043;42781.867
591.610;31823.158;  -13.244;42839.098
592.192;31676.076;  -11.095;42820.402
592.774;30207.648;  -10.823;40724.277
593.356;29210.063;  -11.052;39874.789
593.937;30539.406;  -11.664;39980.648
594.519;34367.434;  -10.454;42069.633
595.101;37225.793;  -10.322;42976.031
595.683;36435.211;  -10.042;44084.441
596.264;32657.072;  -14.334;43478.797
596.846;33782.211;  -10.863;43803.672
597.427;32909.031;   -9.901;42986.934
598.009;31507.246;  -10.911;42832.219
598.591;32065.586;  -10.483;42580.086
599.172;33683.914;   -9.663;43061.805
599.753;34533.777;  -10.631;41691.469
600.335;34856.219;   -9.371;40692.520
600.916;32887.516;  -13.992;39982.422
601.498;32243.846;   -8.352;40318.617
602.079;32924.535;   -8.411;40670.609
602.660;32641.223;  -10.841;41450.898
603.241;32219.107;  -12.963;41137.738
603.823;32792.387;  -11.523;38868.797
604.404;32589.666;  -11.881;38182.785
604.985;33306.840;  -11.721;38078.047
605.566;33137.746;   -9.293;38056.633
606.147;31787.004;  -10.940;37020.418
606.728;33481.578;  -11.840;37883.359
607.309;34547.559;  -11.781;38748.273
607.890;34725.789;  -11.262;38850.230
608.471;32775.484;  -10.111;37457.918
609.051;32378.096;   -7.709;36066.457
609.632;29956.207;  -12.409;35991.074
610.213;30310.410;  -10.811;37402.641
610.794;31858.941;  -11.630;38383.363
611.374;35406.016;   -8.030;40562.387
611.955;35497.301;  -10.809;38533.727
612.536;33884.703;  -10.531;36951.789
613.116;33788.508;  -12.820;37197.891
613.697;34765.805;  -11.419;38411.125
614.277;35923.270;   -9.768;38673.938
614.858;32826.891;  -10.251;37075.863
615.438;29430.135;  -11.981;35092.906
616.019;27270.973;   -8.978;33666.301
616.599;29700.387;  -12.219;34189.023
617.179;31846.590;  -14.170;36952.047
617.760;32439.813;   -9.211;39582.574
618.340;32512.541;   -9.018;38943.977
618.920;33018.547;   -9.249;37594.156
619.500;33181.664;  -12.728;37866.938
620.080;33468.277;  -12.939;37869.043
620.660;34458.664;  -11.586;36868.617
621.241;34197.434;  -11.538;36352.309
621.821;32923.719;  -11.398;35459.520
622.401;31590.357;  -10.179;35207.414
622.980;31722.162;  -11.587;35980.422
623.560;33215.258;  -12.888;37351.328
624.140;31351.260;  -13.149;34388.582
624.720;27072.955;   -9.928;32368.764
625.300;26527.951;  -10.869;32638.629
625.880;29212.396;   -8.617;34599.035
626.459;30220.805;  -12.138;36831.738
627.039;32702.363;  -12.267;38299.098
627.619;36074.051;   -7.476;38289.574
628.198;37803.629;  -11.347;37220.695
628.778;35241.402;  -11.678;37632.563
629.357;32356.684;  -12.438;38003.012
629.937;31421.914;   -9.576;38402.039
630.516;31387.432;  -11.096;37868.801
631.096;32452.621;  -11.828;35760.410
631.675;33737.965;  -11.565;35225.219
632.254;34305.211;  -11.845;35130.289
632.834;35772.527;  -11.545;35794.570
633.413;35267.344;  -10.887;35788.922
633.992;34788.730;  -10.175;34532.863
634.571;35462.281;   -9.704;33590.113
635.151;34033.070;  -10.815;34943.863
635.730;32722.020;  -11.617;35352.523
636.309;32499.611;  -10.836;35366.605
636.888;33159.910;   -9.755;36165.637
637.467;33385.262;  -11.684;37515.902
638.046;33586.078;  -11.987;39288.695
638.625;32987.605;  -10.455;38279.699
639.204;32571.191;  -11.234;37741.598
639.782;33411.301;  -12.023;38364.551
640.361;31897.559;  -11.506;36740.621
640.940;28986.221;  -12.316;34950.082
641.519;26967.697;  -11.616;34137.398
642.097;29010.723;   -9.266;35654.258
642.676;32842.742;  -12.936;35637.957
643.255;33649.965;   -9.966;36567.074
643.833;34352.379;   -8.916;37809.434
644.412;32157.006;  -10.936;37337.293
644.990;31371.133;  -12.176;37018.531
645.569;32326.322;  -12.246;36518.469
646.147;34911.094;  -12.107;36186.430
646.726;37454.762;  -12.937;36267.688
647.304;34573.199;  -12.547;36647.625
647.882;33561.715;  -12.597;39286.742
648.461;32843.164;   -9.427;39157.703
649.039;32911.484;   -8.937;35412.883
649.617;33795.867;  -11.067;34744.918
650.195;32274.869;  -10.657;35403.098
650.773;29647.584;  -10.097;35053.797
651.352;29067.686;  -11.887;33756.816
651.930;28096.641;  -13.557;31868.773
652.508;28081.869;  -11.767;33121.551
653.086;30925.871;  -10.777;33564.793
653.663;33718.363;  -12.067;34054.668
654.241;36276.457;  -14.918;35693.309
654.819;35870.602;  -11.788;36422.906
655.397;33771.313;  -11.268;38213.484
655.975;32024.396;  -11.738;39507.625
656.553;30076.602;  -11.018;39498.223
657.130;28855.018;  -12.848;40395.480
657.708;27862.607;  -10.098;39242.020
658.286;28995.525;  -11.678;38920.020
658.863;31419.662;  -11.498;40202.898
659.441;33954.430;  -11.008;39677.938
660.018;35703.242;  -11.048;40413.355
660.596;36581.082;  -12.058;39931.414
661.173;37339.938;  -14.158;39604.531
661.750;36762.949;  -12.298;39700.070
662.328;36318.012;  -10.699;39292.809
662.905;35830.770;  -12.119;38235.648
663.482;31942.137;  -11.829;36212.305
664.060;28083.395;  -11.009;35944.945
664.637;31155.551;  -10.369;35170.785
665.214;33779.254;  -10.459;34197.523
665.791;33060.508;  -12.599;34549.520
666.368;30569.832;  -12.919;35118.578
666.945;28875.963;  -10.699;36019.418
667.522;29925.688;  -11.359;36048.438
668.099;30336.477;  -13.529;36243.914
668.676;28927.221;  -10.229;35958.875
669.253;28478.750;   -9.279;37384.730
669.830;28165.992;  -11.370;36779.629
670.407;28244.615;  -10.950;35231.289
670.984;29343.346;  -12.850;35544.270
671.560;28037.914;   -8.440;35466.867
672.137;28857.869;  -13.520;34280.863
672.714;30308.500;  -13.620;34632.863
673.290;30679.479;  -10.450;35135.422
673.867;29729.006;  -10.960;36114.480
674.443;30740.133;  -13.300;36152.859
675.020;28864.449;  -12.370;35327.238
675.596;28121.748;  -11.250;35795.176
676.173;28827.117;  -11.080;35430.355
676.749;28719.641;  -13.220;33549.516
677.326;29778.219;  -13.000;32210.012
677.902;29509.805;  -12.701;32068.871
678.478;28043.750;  -12.801;32583.891
679.054;28978.816;   -8.601;32088.928
679.631;30080.729;  -12.631;30978.848
680.207;30692.191;   -9.451;33160.887
680.783;30127.010;  -11.701;35570.363
681.359;30724.203;  -12.701;36125.184
681.935;32734.709;  -13.271;35240.922
682.511;34763.668;  -10.791;34429.961
683.087;32871.766;  -10.791;34463.680
683.663;29481.814;   -8.121;34648.898
684.239;27139.451;  -13.261;34546.457
684.815;27606.563;  -10.581;35586.375
685.390;29561.377;   -9.961;35821.895
685.966;29194.330;  -11.182;35085.871
686.542;28387.543;  -13.512;34198.230
687.118;26328.209;  -11.472;32847.707
687.693;25175.961;  -10.152;32794.027
688.269;25680.645;  -14.442;33072.367
688.844;24810.938;  -11.852;33141.664
689.420;23743.582;  -13.942;33965.742
689.995;24987.127;   -9.702;34655.523
690.571;26861.596;  -11.312;33576.742
691.146;27053.168;  -14.332;32657.219
691.722;26693.139;  -11.192;32526.979
692.297;27447.754;  -10.962;33014.617
692.872;28869.322;  -11.082;34012.254
693.448;29651.518;  -14.732;34237.434
694.023;29132.156;  -12.363;34142.672
694.598;27213.533;  -12.393;34132.031
695.173;27631.719;  -11.023;34205.250
695.748;29226.389;  -12.743;32882.488
696.323;28681.305;  -11.103;32864.906
696.898;27916.861;   -8.123;33170.004
697.473;27609.609;  -12.603;32432.984
698.048;27970.295;  -12.553;31649.303
698.623;29288.848;  -12.573;30778.141
699.198;29080.998;  -12.743;31140.119
699.773;28357.143;  -12.843;31764.299
700.348;28867.822;  -16.683;31780.816
700.922;29992.010;  -11.403;32046.375
701.497;31513.475;  -11.253;32603.574
702.072;30769.182;  -10.044;34799.871
702.646;29902.236;  -13.054;35793.172
703.221;30520.656;  -11.414;35201.590
703.795;30238.617;  -10.644;34764.527
704.370;28483.504;  -13.484;34307.367
704.944;27547.063;  -12.144;33509.887
705.519;26916.221;  -12.024;31388.584
706.093;28565.861;  -11.234;31340.104
706.668;29795.547;   -9.874;32630.281
707.242;28868.291;  -12.404;32728.779
707.816;27249.033;  -10.644;32947.238
708.390;26800.781;  -11.174;33277.855
708.965;26629.631;  -10.324;33834.336
709.539;27109.553;  -12.014;33709.273
710.113;27564.396;  -12.295;33044.313
710.687;29104.469;  -10.965;31953.992
711.261;31210.760;  -13.685;30505.949
711.835;29825.572;  -15.335;30262.369
712.409;28501.625;  -13.785;31254.447
712.983;28736.752;  -10.525;32754.986
713.557;27153.289;  -13.175;34018.824
714.131;26988.291;  -13.245;34579.625
714.704;30109.635;  -13.175;33890.262
715.278;32408.715;  -11.545;33531.102
715.852;30830.922;  -10.975;33601.660
716.425;29070.844;  -10.075;33515.117
716.999;29414.939;  -12.185;33185.555
717.573;31765.969;   -9.685;33905.996
718.146;32799.211;  -10.516;35199.293
718.720;31478.348;  -12.106;35060.551
719.293;29733.191;  -12.386;34973.230
719.867;29485.082;  -12.456;36394.449
720.440;29231.072;  -10.686;36663.008
721.013;29363.457;  -12.596;35102.426
721.587;30972.607;  -13.956;33985.266
722.160;33188.609;   -9.806;33524.965
722.733;33937.738;  -11.676;32987.043
723.306;33254.281;  -14.276;33066.301
723.880;30873.797;  -12.126;33399.500
724.453;28525.908;  -10.156;33468.297
725.026;28193.012;  -12.956;33816.637
725.599;28481.102;  -11.676;32797.996
726.172;28932.984;  -12.337;33187.434
726.745;29067.506;  -11.277;35136.613
727.318;28937.156;  -11.927;35751.730
727.891;28122.166;  -13.607;35890.430
728.463;25839.031;  -11.327;34822.090
729.036;25665.967;  -11.917;32895.086
729.609;27439.379;  -12.697;31823.225
730.182;28360.148;  -11.787;31445.283
730.754;27942.100;  -12.957;32373.223
731.327;27595.848;  -11.017;33676.820
731.900;27300.916;  -12.797;33417.000
732.472;26721.898;  -10.677;31978.498
733.045;26111.744;  -12.797;30368.777
733.617;26160.068;  -13.908;30574.215
734.190;25011.520;  -12.258;31280.975
734.762;24866.756;  -13.438;31674.412
735.334;26021.131;  -11.758;31247.291
735.907;28817.229;  -11.158;29876.211
736.479;32296.793;  -11.258;29808.488
737.051;32918.449;  -10.918;30233.547
737.623;31820.582;  -11.038;31469.086
738.195;32866.820;  -12.188;31784.225
738.768;30783.672;  -11.378;32120.523
739.340;25191.100;  -12.598;32094.342
739.912;23247.793;  -11.568;31312.680
740.484;24620.287;   -9.348;31946.238
741.056;26732.525;  -12.628;32984.059
741.628;28471.838;  -13.349;33897.715
742.199;27714.871;  -11.309;33213.016
742.771;28401.648;  -12.699;31369.113
743.343;29612.674;  -11.919;31865.473
743.915;29543.186;  -11.679;32388.631
744.487;28263.438;  -12.249;31079.568
745.058;26075.174;  -11.119;30570.107
745.630;24752.498;   -9.439;29970.127
746.201;23862.768;  -11.949;29186.766
746.773;23892.053;  -12.639;28805.723
747.344;25048.051;  -11.039;29591.223
747.916;27270.402;  -12.549;31412.201
748.487;26457.104;  -12.659;32194.898
749.059;24803.732;  -13.059;32533.719
749.630;23950.334;  -12.080;32158.518
750.201;22241.350;  -13.100;30855.395
750.773;21405.510;  -15.310;28622.555
751.344;21064.387;  -12.240;28405.732
751.915;21122.277;  -11.960;28461.551
752.486;20221.260;  -13.200;27842.850
753.057;18919.941;  -15.230;27845.008
753.628;19977.320;  -13.130;27728.107
754.199;22512.361;  -12.720;27381.086
754.770;22722.541;  -10.680;25882.203
755.341;21370.869;  -11.010;25886.184
755.912;20868.428;  -12.990;26050.861
756.483;20269.049;  -11.110;26798.779
757.054;19794.652;  -12.190;27048.238
757.625;19729.730;  -13.981;26294.838
758.195;19735.023;  -11.041;26142.076
758.766;20823.936;  -11.861;26392.234
759.337;21352.203;  -11.461;26334.594
759.907;20847.553;  -15.001;27579.652
760.478;19605.484;   -9.681;28352.770
761.048;18386.373;  -12.421;27325.088
761.619;19317.430;  -11.761;26460.428
762.189;19926.547;  -12.391;26029.826
762.760;19166.912;  -10.201;26430.145
763.330;19572.107;  -10.811;26670.902
763.900;20157.365;  -10.261;26603.021
764.471;19221.652;  -13.061;25542.740
765.041;17895.965;  -11.051;24358.459
765.611;17745.031;  -11.032;23991.297
766.181;17973.115;  -10.532;24470.236
766.751;18331.959;  -13.502;24845.975
767.321;19489.598;  -11.392;24533.633
767.891;21230.076;  -11.522;24916.492
768.461;22538.932;  -13.672;24776.771
769.031;20150.887;  -14.652;24757.988
769.601;17283.783;  -10.182;24181.088
770.171;16200.366;  -11.752;23670.387
770.741;15342.414;  -12.272;22960.045
771.311;15027.075;  -13.112;22917.523
771.880;15920.822;  -14.122;23562.941
772.450;16609.096;  -11.782;24216.500
773.020;16761.932;  -12.642;24140.398
773.589;15868.772;  -13.043;24414.857
774.159;15292.713;  -11.783;23858.717
774.729;16165.399;  -13.473;22942.135
775.298;17068.826;  -14.523;22324.033
775.867;16747.436;  -12.013;21140.313
776.437;15978.537;  -12.113;20838.092
777.006;15501.203;  -13.543;20599.510
777.576;16072.429;  -12.523;20508.809
778.145;16278.992;  -12.173;20732.947
778.714;15633.889;  -12.153;21062.465
779.283;14930.161;  -11.833;20949.664
779.853;15132.817;  -13.483;20508.623
780.422;15372.489;  -12.933;20649.082
780.991;14952.202;  -13.173;21527.520
781.560;14638.738;  -10.224;22632.658
782.129;15103.040;  -12.684;23048.277
782.698;15188.797;  -11.284;23438.555
783.267;15017.358;  -11.684;23267.734
783.836;14727.866;  -10.974;22415.133
784.404;14313.985;  -13.534;20443.152
784.973;13547.631;  -16.734;19699.150
785.542;12418.039;  -12.594;19763.828
786.111;11983.969;  -11.644;20341.408
786.679;12994.837;  -11.384;20207.967
787.248;13236.898;  -12.014;19516.465
787.817;12094.729;  -12.804;18900.363
788.385;10886.957;  -11.994;17879.121
788.954;11182.508;  -12.564;17658.301
789.522;12155.474;  -12.225;17788.879
790.090;12171.979;  -13.775;18118.277
790.659;11968.136;  -12.485;18338.736
791.227;12620.442;  -12.295;18508.615
791.795;13300.095;  -13.415;17898.254
792.364;13852.402;  -12.995;17295.133
792.932;13693.766;   -8.365;16822.051
793.500;12615.277;  -11.925;17040.148
794.068;12733.575;  -13.245;17179.787
794.636;13579.937;  -13.815;16664.246
795.204;13642.976;  -13.375;16524.545
795.772;13408.211;  -12.125;17274.564
796.340;12589.454;  -13.855;17891.002
796.908;10928.865;  -13.456;17648.561
797.476; 9982.455;  -13.116;17064.080
798.044;10218.500;  -13.226;16672.777
798.612;10573.314;  -11.236;17023.996
799.180;10494.746;  -10.476;16561.615
799.747;10145.069;  -11.746;15962.773
800.315; 9730.987;  -12.366;15296.992
800.883; 9139.185;  -14.616;14801.771
801.450; 9210.543;  -11.996;14534.430
802.018;10068.468;  -11.206;14173.248
802.585;10508.249;  -12.466;14029.547
803.153; 9983.560;  -12.846;13836.846
803.720; 9323.718;  -12.136;13567.324
804.287; 9467.722;  -10.966;13360.622
804.855; 9631.401;   -9.797;13681.981
805.422; 8865.586;  -13.037;13536.560
805.989; 8119.541;  -12.697;13355.958
806.556; 8275.913;  -11.737;13747.896
807.124; 8991.957;  -11.997;13987.376
807.691; 8800.950;  -13.997;14038.674
808.258; 8183.221;  -10.927;14120.152
808.825; 8457.602;  -13.727;13860.111
809.392; 8578.598;  -11.847;13268.790
809.959; 8555.836;  -14.217;12680.389
810.526; 8490.260;   -8.277;12427.308
811.093; 8585.010;   -9.647;12030.105
811.659; 8623.632;  -10.987;11653.664
812.226; 8029.848;  -13.447;11637.183
812.793; 7529.409;  -14.418;11611.521
813.360; 7708.569;  -13.908;11885.181
813.926; 8247.390;  -12.918;12770.539
814.493; 8496.566;  -14.888;12677.638
815.060; 8040.755;  -12.758;11974.336
815.626; 7710.752;  -13.478;11594.715
816.193; 7645.609;  -13.898;11579.474
816.759; 7782.257;  -13.588;11666.972
817.325; 7814.871;  -12.018;11325.530
817.892; 7443.951;  -14.068;11105.369
818.458; 7444.932;  -13.458;10843.928
819.024; 7321.649;  -11.968;10714.406
819.591; 7069.150;  -11.028;10469.165
820.157; 7147.228;  -12.088;10235.523
820.723; 7270.254;  -12.599;10847.563
821.289; 6991.960;  -10.419;11040.980
821.855; 6782.052;  -10.939;10357.100
822.421; 6741.832;  -12.539; 9978.918
822.987; 6648.120;  -13.259; 9754.177
823.553; 6410.262;  -15.369;10065.755
824.119; 6254.146;  -10.779;10036.294
824.685; 6243.252;   -9.999;10029.192
825.251; 6108.089;  -11.819;10199.230
825.816; 6033.364;  -13.369; 9820.189
826.382; 5886.179;  -12.679; 9297.248
826.948; 5428.392;  -11.199; 9381.347
827.513; 5241.456;  -11.179; 9450.726
828.079; 5371.286;  -13.489; 9472.444
828.645; 5512.542;  -12.500; 9292.643
829.210; 5512.921;  -15.120; 9065.341
829.776; 5437.720;  -12.590; 9132.620
830.341; 5528.377;  -11.540; 9092.878
830.906; 5895.457;  -12.400; 9078.557
831.472; 5883.778;  -12.720; 8534.535
832.037; 5158.850;  -11.490; 8677.874
832.602; 4516.141;  -14.380; 8628.692
833.167; 4263.886;  -12.780; 8879.031
833.733; 4470.545;  -11.100; 9189.790
834.298; 4808.568;  -12.080; 9052.608
834.863; 4635.090;  -13.910; 8895.087
835.428; 4345.474;  -13.470; 8824.266
835.993; 4190.409;  -11.760; 8845.385
836.558; 4366.441;  -12.731; 8888.563
837.123; 4522.909;  -12.431; 8966.582
837.688; 4368.388;  -11.241; 8617.860
838.253; 4189.634;  -13.681; 8590.699
838.817; 4311.689;  -12.531; 8443.797
839.382; 4453.486;  -12.671; 8799.356
839.947; 4514.559;  -11.541; 8810.595
840.511; 4635.902;  -12.021; 8796.394
841.076; 4699.859;  -13.071; 8347.231
841.641; 4881.511;  -11.411; 8224.330
842.205; 5089.658;  -13.671; 8223.349
842.770; 4971.249;  -11.291; 8622.107
843.334; 4703.337;  -12.951; 8410.386
843.898; 4460.995;  -11.221; 8337.465
844.463; 4514.045;  -11.322; 8506.283
845.027; 4506.718;  -11.412; 8280.962
845.591; 4260.322;  -11.512; 8231.141
846.156; 4114.084;  -14.042; 7969.179
846.720; 4160.942;  -12.152; 7768.278
847.284; 3980.359;  -10.922; 7630.957
847.848; 3802.082;  -10.962; 7472.395
848.412; 3594.947;  -14.612; 7437.394
848.976; 3589.153;  -11.492; 7674.592
849.540; 3863.157;   -9.172; 7836.011
850.104; 4067.482;  -11.232; 7913.669
850.668; 3991.312;  -15.182; 7694.508
851.232; 3856.807;  -15.332; 7756.887
851.796; 3788.181;  -13.703; 7926.545
852.359; 3847.133;  -11.113; 7827.844
852.923; 3936.305;  -11.843; 7641.163
853.487; 3915.414;  -11.173; 7342.501
854.050; 3798.043;  -13.443; 7042.820
854.614; 3749.821;  -13.823; 7151.338
855.177; 3675.732;  -16.393; 7105.077
855.741; 3623.608;  -11.693; 6989.675
856.304; 3596.235;  -10.843; 6596.634
856.868; 3485.592;  -13.783; 6356.272
857.431; 3259.656;  -11.953; 6468.571
857.995; 3006.022;  -13.683; 6373.210
858.558; 2970.734;  -11.433; 6324.448
859.121; 3090.292;  -12.493; 6408.327
859.684; 3036.335;  -12.384; 6347.886
860.247; 2721.806;  -14.774; 6321.264
860.810; 2461.266;  -13.154; 6301.903
861.374; 2461.073;  -11.264; 6607.881
861.937; 2539.238;  -15.424; 6408.200
862.500; 2532.435;  -12.854; 6572.639
863.062; 2510.619;  -12.344; 6387.297
863.625; 2506.310;  -13.314; 6190.836
864.188; 2583.304;  -14.724; 5807.254
864.751; 2765.888;  -13.464; 5682.413
865.314; 3114.103;  -11.684; 5547.492
865.876; 3349.201;  -11.104; 5500.150
866.439; 3302.250;  -12.344; 5415.909
867.002; 3121.042;  -13.494; 5501.567
867.564; 2861.682;  -10.935; 5413.946
868.127; 2674.304;  -12.665; 5160.325
868.689; 2639.591;  -14.515; 5133.183
869.252; 2691.395;  -13.425; 5252.382
869.814; 2854.632;  -11.595; 5297.141
870.377; 2966.655;  -12.175; 5390.919
870.939; 2859.503;  -10.265; 5599.898
871.501; 2716.529;  -12.375; 5248.336
872.063; 2634.328;  -14.355; 4854.235
872.626; 2560.750;  -14.435; 4817.074
873.188; 2470.322;  -12.415; 4987.732
873.750; 2491.540;  -14.555; 4868.651
874.312; 2424.910;  -11.185; 4779.330
874.874; 2238.406;  -12.715; 4866.348
875.436; 2150.393;  -13.196; 4718.887
875.998; 2147.312;  -11.426; 4660.005
876.560; 2067.467;   -9.786; 4462.964
877.122; 2004.327;  -12.796; 4145.042
877.683; 1983.159;  -13.226; 4056.481
878.245; 1969.822;  -12.036; 3950.740
878.807; 1976.731;  -11.536; 4058.958
879.369; 1971.262;  -10.806; 3954.677
879.930; 1870.263;  -13.946; 3941.495
880.492; 1718.654;  -11.876; 4067.014
881.053; 1681.849;  -13.216; 3859.633
881.615; 1745.732;  -12.226; 3776.071
882.176; 1787.359;  -12.946; 3734.750
882.738; 1729.497;  -10.736; 3678.489
883.299; 1663.013;  -12.057; 3405.407
883.860; 1641.661;  -12.677; 3351.106
884.422; 1622.237;  -14.097; 3394.044
884.983; 1534.613;  -13.667; 3166.443
885.544; 1386.142;  -10.717; 3189.802
886.105; 1252.525;  -14.357; 3160.360
886.666; 1179.220;  -14.287; 3093.059
887.227; 1117.942;  -14.297; 2941.957
887.788; 1030.855;  -13.137; 2974.836
888.349;  855.301;  -14.637; 2721.214
888.910;  689.590;  -12.247; 2696.493
889.471;  606.751;  -10.577; 2560.172
890.032;  572.183;  -12.937; 2558.190
890.593;  563.115;  -12.487; 2567.669
891.153;  563.532;  -11.898; 2460.307
891.714;  593.429;  -14.278; 2372.046
892.275;  626.650;  -13.308; 2309.505
892.835;  612.574;  -12.058; 2382.543
893.396;  570.470;  -15.268; 2295.502
893.956;  538.107;  -13.278; 2162.420
894.517;  516.423;  -11.968; 2125.439
895.077;  512.804;  -12.798; 2086.978
895.638;  499.152;  -11.908; 2126.316
896.198;  479.101;  -13.288; 1838.275
896.758;  459.215;  -12.198; 1892.813
897.319;  438.886;  -13.048; 1792.232
897.879;  405.487;  -13.718; 1762.751
898.439;  371.448;  -14.138; 1661.149
898.999;  361.883;  -13.659; 1781.468
899.559;  352.095;  -14.699; 1703.347
900.119;  331.613;  -14.339; 1537.525
900.679;  310.121;  -11.789; 1638.384
901.239;  289.308;  -13.629; 1527.902
901.799;  276.148;  -13.679; 1456.441
902.359;  263.831;  -13.679; 1357.140
902.919;  254.004;  -14.159; 1331.118
903.479;  244.770;  -13.419; 1317.257
904.038;  233.893;  -14.899; 1262.595
904.598;  223.099;  -14.339; 1152.034
905.158;  216.132;  -13.959; 1240.893
905.717;  211.157;  -12.749; 1233.691
906.277;  205.012;  -11.889; 1217.330
906.836;  198.910;  -12.870; 1222.408
907.396;  195.551;  -11.790; 1193.047
907.955;  193.417;  -13.750; 1182.526
908.515;  187.838;  -14.760; 1099.364
909.074;  182.147;  -12.540; 1092.863
909.633;  175.283;  -12.120; 1069.121
910.192;  172.921;  -12.550; 1196.460
910.752;  171.780;  -12.760; 1029.960
911.311;  167.846;  -14.750; 1009.780
911.870;  163.663;  -13.860;  971.460
912.429;  163.346;  -13.480; 1094.080
912.988;  160.265;  -12.370; 1081.060
913.547;  155.350;  -14.670;  940.380
914.106;  151.394;  -12.800;  999.420
914.665;  150.149;  -11.370;  984.020
915.224;  149.449;  -11.430; 1035.760
915.782;  147.687;  -12.260;  922.560
916.341;  147.956;  -12.540; 1049.840
916.900;  145.796;  -12.540;  925.260
917.458;  145.649;  -13.480;  884.220
918.017;  144.307;  -12.470;  942.600
918.576;  143.360;  -13.450;  904.440
919.134;  140.967;  -12.890;  837.980
919.693;  140.671;  -15.480;  893.060
920.251;  137.968;  -14.420;  876.500
920.809;  136.657;  -12.170;  839.580
921.368;  137.721;  -13.650;  885.360
921.926;  138.581;  -12.750;  842.940
922.484;  137.988;  -14.150;  903.360
923.042;  138.200;  -15.100;  880.340
923.601;  141.105;  -10.990;  998.680
924.159;  141.862;  -12.470;  935.560
924.717;  141.062;  -15.640;  841.080
925.275;  140.717;  -12.380;  903.240
925.833;  140.433;  -12.710;  779.320
926.391;  143.700;  -11.200;  938.380
926.949;  143.460;  -16.000;  857.680
927.506;  145.017;  -12.260;  903.500
928.064;  144.715;  -11.300;  877.580
928.622;  146.363;  -13.750;  880.100
929.180;  144.943;  -15.290;  814.180
929.737;  143.056;  -14.500;  808.540
930.295;  145.529;  -10.630;  928.480
930.853;  148.156;  -14.590;  849.100
931.410;  150.850;  -14.450;  821.120
931.968;  153.190;  -14.390;  940.660
932.525;  153.332;  -13.050;  909.380
933.082;  153.496;  -15.620;  811.440
933.640;  155.076;  -15.650;  925.900
934.197;  156.741;  -13.610;  886.360
934.754;  162.091;  -13.320;  897.780
935.312;  166.045;  -13.370;  863.340
935.869;  168.398;  -12.780; 1012.980
936.426;  166.624;  -14.480;  872.800
936.983;  168.334;  -13.180;  889.020
937.540;  170.166;  -15.710;  838.280
938.097;  170.471;  -14.980;  940.120
938.654;  172.044;  -13.060;  898.860
939.211;  172.751;  -12.760;  952.480
939.768;  173.094;  -16.230;  915.420
940.324;  173.481;  -10.940;  904.200
940.881;  172.213;  -12.570;  878.500
941.438;  170.980;  -13.650; 1021.200
941.995;  171.293;  -13.300;  992.560
942.551;  172.720;  -15.800;  875.620
943.108;  171.807;  -14.180;  937.920
943.664;  170.546;  -13.890;  869.340
944.221;  175.597;  -12.640; 1088.140
944.777;  172.670;  -14.700;  869.680
945.334;  170.466;  -13.010;  884.840
945.890;  172.466;  -13.480;  946.480
946.446;  172.187;  -14.920;  947.020
947.003;  171.099;  -13.860;  964.940
947.559;  169.553;  -12.000; 1063.040
948.115;  171.017;  -10.510; 1026.540
948.671;  170.583;  -12.760;  967.300
949.227;  167.961;  -15.390;  859.560
949.783;  163.096;  -15.570;  858.900
950.339;  162.995;  -12.800;  991.000
950.895;  160.854;  -13.780; 1023.840
951.451;  160.239;  -13.810;  925.280
952.007;  162.197;  -12.390;  998.540
952.563;  162.071;  -11.980;  937.780
953.118;  160.618;  -14.070;  904.940
953.674;  162.268;  -14.140;  935.780
954.230;  166.166;  -12.680;  949.640
954.785;  167.851;  -12.770;  936.640
955.341;  164.999;  -11.450;  998.160
955.897;  157.167;  -15.350;  834.660
956.452;  152.601;  -14.200;  953.840
957.008;  148.275;  -10.820; 1083.640
957.563;  146.716;  -13.200; 1009.540
958.118;  146.419;  -14.460;  877.700
958.674;  145.925;  -13.840;  946.780
959.229;  146.671;  -10.670; 1013.980
959.784;  146.589;  -17.040;  832.400
960.339;  149.192;  -12.970; 1001.280
960.894;  151.428;  -12.700;  963.760
961.449;  154.656;  -13.790;  859.960
962.004;  162.661;  -11.760; 1212.840
962.559;  160.482;  -14.840;  860.140
963.114;  155.025;  -14.530;  742.480
963.669;  152.113;  -12.780;  915.500
964.224;  150.042;  -14.330;  874.340
964.779;  142.631;  -14.380;  828.420
965.334;  138.741;  -12.460; 1017.860
965.888;  133.863;  -13.490;  875.360
966.443;  133.969;  -14.140;  972.380
966.998;  131.131;  -16.240;  819.460
967.552;  129.471;  -12.730;  908.380
968.107;  127.493;  -14.510;  868.300
968.661;  128.856;  -11.850;  922.440
969.216;  124.648;  -14.370;  856.280
969.770;  122.611;  -13.010;  917.200
970.324;  121.428;  -12.460;  923.140
970.879;  122.888;  -11.580;  947.180
971.433;  124.677;  -13.130;  952.720
971.987;  122.440;  -12.360;  895.340
972.541;  119.287;  -14.330;  917.100
973.095;  117.707;  -13.310; 1009.460
973.649;  113.589;  -15.830;  809.480
974.203;  112.875;  -15.830;  829.040
974.757;  114.802;  -13.480;  855.220
975.311;  118.101;  -13.720;  872.600
975.865;  118.944;  -15.780;  881.820
976.419;  117.614;  -14.290;  857.400
976.973;  115.340;  -13.210;  849.620
977.526;  113.290;  -12.300;  949.920
978.080;  107.645;  -14.840;  796.780
978.634;  106.390;  -13.100;  921.320
979.187;  102.812;  -12.300;  905.400
979.741;  102.474;  -12.020; 1018.380
980.294;   99.670;  -14.590;  789.160
980.848;   97.737;  -14.390;  717.220
981.401;   98.067;  -14.280;  816.540
981.955;   98.196;  -11.920;  844.300
982.508;   95.238;  -15.790;  746.340
983.061;   94.734;  -12.070;  915.260
983.615;   91.676;  -13.260;  798.800
984.168;   89.820;  -15.540;  770.080
984.721;   89.631;  -13.230;  880.760
985.274;   85.986;  -11.820;  867.500
985.827;   84.035;  -13.510;  834.220
986.380;   82.784;  -14.840;  721.340
986.933;   84.321;  -13.970;  864.800
987.486;   82.394;  -12.450;  861.920
988.039;   80.517;  -11.170;  863.100
988.591;   78.426;  -13.070;  893.260
989.144;   75.185;  -15.530;  737.260
989.697;   73.088;  -14.300;  758.740
990.250;   71.999;  -13.310;  858.100
990.802;   69.966;  -14.490;  755.860
991.355;   71.684;  -12.980;  974.880
991.907;   68.923;  -13.715;  864.320
992.460;   66.162;  -14.450;  753.760
993.012;   65.933;  -12.590;  749.540
993.565;   64.249;  -15.180;  711.360
994.117;   64.108;  -11.630;  950.780
994.669;   61.379;  -13.760;  701.320
995.221;   61.273;  -12.710;  791.920
995.774;   61.424;  -14.620;  787.580
996.326;   58.830;  -13.150;  740.220
996.878;   59.783;  -12.880;  838.420
997.430;   58.630;  -14.580;  699.860
997.982;   57.255;  -14.030;  750.140
998.534;   55.775;  -12.190;  739.060
999.086;   54.475;  -12.990;  738.220
999.638;   53.995;  -13.180;  661.380
1000.190;   52.931;  -14.970;  699.320
1000.741;   52.803;  -12.200;  742.700
1001.293;   51.291;  -13.400;  686.020
1001.845;   51.245;  -14.490;  676.640
1002.396;   52.297;  -15.280;  743.400
1002.948;   50.807;  -12.380;  737.400
1003.500;   50.142;  -13.260;  723.780
1004.051;   51.548;  -13.730;  907.580
1004.603;   50.186;  -12.300;  791.820
1005.154;   46.665;  -15.330;  608.980
1005.705;   45.532;  -12.800;  723.960
1006.257;   45.742;  -13.900;  707.220
1006.808;   44.442;  -14.430;  685.460
1007.359;   43.400;  -12.010;  763.240
1007.910;   41.098;  -12.690;  646.640
1008.461;   41.893;  -13.610;  732.940
1009.013;   40.214;  -14.990;  588.340
1009.564;   41.304;  -11.860;  793.520
1010.115;   38.485;  -12.640;  597.040
1010.665;   38.740;  -14.570;  602.160
1011.216;   39.795;  -15.190;  667.920
1011.767;   38.282;  -13.470;  697.920
1012.318;   38.904;  -13.760;  736.980
1012.869;   38.078;  -15.950;  679.000
1013.419;   37.380;  -15.880;  603.120
1013.970;   38.072;  -14.540;  666.640
1014.521;   37.154;  -13.220;  620.620
1015.071;   37.706;  -15.020;  670.380
1015.622;   37.097;  -17.510;  635.460
1016.172;   35.491;  -14.130;  596.820
1016.723;   35.595;  -14.220;  614.380
1017.273;   36.377;  -15.370;  604.160
1017.823;   36.160;  -15.290;  650.340
1018.374;   34.964;  -13.420;  611.760
1018.924;   35.103;  -11.740;  716.880
1019.474;   36.028;  -12.250;  718.880
1020.024;   33.902;  -15.850;  657.580
1020.574;   35.109;  -13.280;  726.160
1021.124;   34.126;  -13.560;  673.580
1021.674;   33.650;  -13.790;  559.120
1022.224;   34.906;  -14.610;  708.940
1022.774;   33.066;  -13.100;  668.820
1023.324;   34.463;  -11.470;  753.520
1023.874;   36.319;  -11.990;  875.760
1024.423;   33.092;  -14.550;  613.700
1024.973;   32.931;  -14.440;  610.760
1025.523;   31.234;  -13.250;  620.960
1026.072;   32.890;  -15.200;  606.420
1026.622;   32.364;  -14.590;  675.740
1027.172;   31.758;  -11.080;  715.660
1027.721;   29.945;  -14.010;  601.220
1028.270;   31.879;  -13.690;  663.400
1028.820;   31.563;  -15.380;  638.080
1029.369;   30.366;  -14.980;  612.700
1029.918;   30.589;  -13.100;  649.840
1030.468;   30.669;  -13.680;  564.780
1031.017;   31.114;  -13.770;  634.800
1031.566;   29.520;  -14.100;  608.900
1032.115;   30.272;  -11.770;  694.500
1032.664;   29.308;  -14.940;  596.480
1033.213;   30.680;  -13.370;  735.420
1033.762;   28.860;  -13.660;  635.620
1034.311;   28.763;  -13.650;  677.220
1034.860;   29.322;  -13.820;  691.000
1035.408;   29.969;  -12.860;  722.720
1035.957;   29.731;  -13.060;  719.540
1036.506;   26.658;  -14.510;  530.800
1037.055;   30.480;  -13.470;  844.320
1037.603;   28.337;  -14.800;  664.000
1038.152;   26.210;  -14.190;  534.760
1038.700;   26.317;  -11.810;  585.740
1039.249;   27.498;  -12.850;  681.220
1039.797;   27.153;  -14.610;  633.360
1040.345;   26.575;  -15.220;  705.420
1040.894;   26.143;  -13.480;  625.300
1041.442;   26.849;  -13.310;  632.200
1041.990;   26.154;  -14.510;  559.160
1042.538;   24.356;  -15.700;  536.180
1043.087;   24.676;  -13.910;  570.860
1043.635;   26.743;  -13.620;  670.500
1044.183;   25.863;  -14.230;  586.400
1044.731;   24.916;  -13.730;  576.000
1045.279;   24.628;  -13.970;  674.920
1045.827;   28.086;  -10.750;  892.400
1046.374;   24.615;  -15.230;  515.420
1046.922;   22.690;  -15.390;  590.580
1047.470;   24.851;  -12.320;  691.300
1048.018;   24.996;  -13.230;  647.960
1048.565;   26.316;  -13.390;  708.600
1049.113;   22.733;  -15.030;  557.000
1049.660;   23.442;  -12.540;  629.660
1050.208;   23.486;  -15.040;  675.640
1050.755;   23.427;  -14.680;  606.580
1051.303;   23.463;  -13.610;  686.820
1051.850;   22.603;  -14.340;  635.120
1052.397;   21.832;  -16.330;  473.960
1052.945;   23.049;  -15.710;  617.760
1053.492;   23.214;  -12.320;  741.840
1054.039;   23.063;  -13.730;  720.180
1054.586;   21.779;  -16.140;  557.240
1055.133;   22.385;  -14.020;  693.140
1055.680;   22.821;  -13.430;  646.620
1056.227;   21.109;  -14.570;  542.780
1056.774;   24.076;  -14.400;  794.980
1057.321;   20.821;  -14.230;  523.260
1057.868;   21.355;  -14.220;  651.320
1058.415;   20.573;  -14.060;  651.980
1058.961;   21.782;  -14.640;  678.940
1059.508;   21.221;  -13.970;  643.820
1060.055;   20.089;  -15.100;  581.780
1060.601;   20.732;  -12.180;  624.300
1061.148;   20.276;  -15.010;  616.820
1061.694;   20.450;  -14.750;  592.580
1062.241;   20.472;  -14.130;  596.320
1062.787;   20.184;  -14.770;  663.140
1063.334;   22.227;  -13.130;  808.560
1063.880;   20.695;  -14.420;  668.360
1064.426;   20.479;  -13.130;  706.820
1064.972;   18.594;  -13.960;  601.340
1065.518;   18.591;  -13.680;  566.640
1066.065;   19.773;  -15.720;  624.460
1066.611;   18.522;  -13.970;  598.800
1067.157;   18.647;  -13.920;  641.860
1067.703;   19.646;  -14.760;  668.480
1068.249;   19.116;  -14.490;  605.220
1068.794;   18.549;  -14.740;  626.880
1069.340;   17.036;  -13.220;  578.960
1069.886;   18.222;  -14.930;  590.700
1070.432;   17.719;  -14.700;  541.720
1070.977;   17.151;  -14.470;  601.080
1071.523;   17.140;  -14.330;  573.060
1072.068;   17.820;  -14.960;  582.000
1072.614;   17.530;  -16.220;  527.760
1073.160;   18.293;  -11.280;  687.040
1073.705;   16.237;  -15.990;  572.520
1074.250;   17.514;  -16.550;  559.900
1074.796;   17.802;  -14.600;  655.160
1075.341;   17.519;  -13.440;  664.100
1075.886;   16.839;  -14.450;  594.240
1076.431;   16.831;  -13.160;  649.880
1076.976;   16.847;  -14.710;  639.220
1077.521;   15.992;  -14.000;  583.080
1078.067;   14.882;  -14.470;  579.400
1078.612;   16.442;  -14.530;  661.620
1079.156;   16.224;  -15.660;  601.540
1079.701;   16.279;  -16.120;  693.260
1080.246;   15.820;  -12.960;  696.300
1080.791;   15.954;  -13.700;  625.020
1081.336;   16.544;  -15.540;  659.320
1081.880;   15.090;  -14.640;  649.680
1082.425;   14.718;  -14.220;  573.480
1082.970;   16.957;  -11.890;  717.040
1083.514;   15.478;  -13.820;  597.000
1084.059;   14.151;  -14.280;  586.720
1084.603;   13.625;  -12.890;  565.840
1085.147;   15.045;  -13.590;  645.220
1085.692;   15.203;  -14.050;  716.800
1086.236;   13.470;  -14.990;  503.140
1086.780;   15.215;  -12.640;  751.440
1087.325;   15.236;  -15.550;  654.620
1087.869;   14.367;  -14.980;  610.700
1088.413;   14.285;  -13.440;  705.040
1088.957;   12.614;  -12.170;  543.400
1089.501;   15.341;  -12.730;  766.640
1090.045;   14.779;  -14.650;  726.480
1090.589;   12.293;  -14.500;  569.920
1091.133;   13.322;  -12.320;  673.340
1091.676;   14.195;  -16.130;  591.940
1092.220;   13.092;  -13.930;  600.920
1092.764;   14.310;  -12.820;  706.960
1093.307;   13.089;  -11.700;  673.780
1093.851;   12.586;  -15.600;  556.540
1094.395;   14.008;  -13.920;  683.140
1094.938;   11.881;  -16.090;  632.520
1095.482;   11.322;  -13.820;  559.800
1096.025;   13.769;  -12.720;  710.880
1096.568;   14.574;  -12.100;  779.280
1097.112;   10.589;  -15.450;  508.180
1097.655;   11.348;  -14.310;  603.000
1098.198;   11.509;  -14.740;  600.180
1098.741;   11.686;  -15.550;  612.860
1099.285;   11.855;  -12.600;  657.300
1099.828;    9.579;  -15.050;  439.400
1100.371;   11.512;  -14.800;  608.160
1100.914;   12.130;  -16.480;  682.660
1101.457;   11.040;  -12.990;  679.900
1101.999;    9.792;  -14.110;  584.680
1102.542;   11.935;  -11.450;  641.440
1103.085;   10.691;  -13.350;  658.500
1103.628;   10.840;  -13.200;  762.060
1104.170;    9.569;  -12.310;  588.280
1104.713;   10.726;  -14.320;  646.700
1105.256;   10.032;  -16.110;  557.440
1105.798;    8.318;  -15.910;  499.980
1106.341;   10.976;  -12.200;  728.900
1106.883;    9.540;  -14.910;  521.340
1107.425;   10.262;  -14.960;  668.180
1107.968;    9.391;  -13.440;  612.380
1108.510;   10.641;  -14.010;  684.960
1109.052;    8.873;  -15.430;  612.620
1109.594;    9.141;  -15.290;  554.440
1110.136;    9.367;  -13.360;  643.220
1110.679;    8.261;  -13.820;  633.080
1111.221;    9.379;  -13.690;  604.460
1111.763;    8.668;  -14.890;  559.220
1112.304;    7.710;  -14.550;  547.140
1112.846;    8.935;  -12.760;  666.240
1113.388;   12.637;  -10.780;  942.180
1113.930;    9.960;  -12.690;  694.200
1114.472;    7.717;  -15.730;  606.540
1115.013;    6.575;  -14.620;  551.280
1115.555;    8.720;  -14.950;  587.100
1116.097;    7.492;  -16.460;  579.480
1116.638;    7.993;  -13.730;  684.600
1117.180;    8.606;  -13.810;  667.740
1117.721;    7.463;  -13.280;  568.580
1118.262;    9.282;  -15.080;  677.960
1118.804;    7.718;  -14.040;  637.340
1119.345;    6.826;  -15.430;  578.400
1119.886;    9.023;  -15.240;  704.040
1120.427;    7.555;  -15.820;  589.020
1120.969;    6.663;  -14.550;  597.920
1121.510;    5.892;  -14.030;  563.060
1122.051;    8.152;  -11.990;  723.580
1122.592;    6.694;  -16.490;  655.420
1123.133;    5.180;  -15.580;  547.940
1123.673;    7.539;  -12.850;  706.480
1124.214;    6.789;  -13.630;  612.460
1124.755;    7.716;  -14.830;  639.460
1125.296;    6.399;  -13.110;  627.320
1125.836;    6.646;  -11.320;  691.500
1126.377;    6.156;  -14.330;  599.660
1126.918;    7.368;  -12.800;  614.980
1127.458;    5.466;  -13.580;  622.220
1127.999;    6.321;  -10.330;  656.980
1128.539;    7.042;  -13.390;  694.240
1129.079;    5.942;  -16.420;  632.720
1129.620;    4.645;  -15.700;  558.100
1130.160;    4.323;  -14.790;  539.480
1130.700;    5.754;  -12.910;  640.840
1131.240;    6.183;  -15.610;  643.700
1131.781;    5.409;  -12.920;  619.680
1132.321;    4.683;  -15.300;  599.120
1132.861;    4.935;  -14.760;  564.200
1133.401;    4.367;  -15.470;  593.940
1133.941;    4.899;  -13.710;  626.280
1134.481;    4.069;  -11.820;  597.580
1135.020;    4.564;  -14.810;  609.160
1135.560;    5.557;  -13.660;  674.940
1136.100;    3.091;  -13.940;  501.160
1136.640;    3.126;  -15.410;  510.480
1137.179;    3.932;  -16.920;  537.960
1137.719;    4.697;  -16.430;  605.400
1138.258;    3.380;  -16.300;  587.360
1138.798;    4.093;  -13.710;  663.780
1139.337;    3.204;  -13.840;  482.840
1139.877;    4.907;  -16.140;  642.360
1140.416;    6.428;  -11.410;  878.060
1140.955;    2.112;  -12.820;  535.380
1141.494;    4.582;  -12.310;  669.280
1142.034;    3.011;  -16.280;  583.520
1142.573;    4.600;  -13.090;  646.280
1143.112;    2.254;  -13.770;  553.480
1143.651;    2.854;  -15.830;  536.480
1144.190;    4.687;  -15.010;  691.640
1144.729;    2.802;  -13.650;  607.420
1145.267;    3.524;  -13.670;  584.900
1145.806;    4.234;  -13.630;  637.040
1146.345;    3.544;  -14.160;  635.020
1146.884;    2.529;  -11.180;  622.500
1147.422;    1.402;  -15.890;  533.060
1147.961;    4.446;  -12.760;  708.460
1148.500;    3.950;  -15.220;  669.720
1149.038;    4.011;  -13.720;  632.500
1149.577;    2.006;  -13.250;  698.640
1150.115;    1.288;  -16.790;  452.280
1150.653;    2.605;  -15.810;  607.340
1151.192;    2.279;  -14.730;  552.920
1151.730;    2.167;  -13.660;  652.560
1152.268;    2.495;  -15.120;  589.520
1152.806;    2.262;  -15.580;  571.180
1153.344;    0.607;  -16.210;  577.640
1153.882;    1.603;  -12.810;  600.060
1154.421;    1.084;  -14.150;  470.620
1154.958;    1.398;  -15.360;  595.240
1155.496;    2.219;  -14.710;  645.280
1156.034;    1.637;  -13.640;  721.880
1156.572;    3.100;  -13.740;  667.060
1157.110;    0.898;  -16.960;  473.940
1157.647;    2.337;  -11.940;  676.960
1158.185;    0.130;  -14.090;  564.320
1158.723;    0.283;  -13.610;  509.200
1159.260;    1.926;  -14.760;  701.700
1159.798;    1.726;  -13.700;  658.160
1160.335;    0.403;  -13.820;  631.820

