
Integration time [ms]:   3.882
Averaging Nr. [scans]: 1000
Smoothing Nr. [pixels]: 0
Data measured with spectrometer [name]: 7414430SP
Wave   ;Sample   ;Dark     ;Reference
[nm]   ;[counts] ;[counts] ;[counts] 

288.544;  125.254;   10.292;  793.890
289.143;  127.893;    4.564;  681.602
289.742;  131.157;    6.144;  828.814
290.341;  119.043;    4.396;  789.841
290.940;  108.422;    0.938;  730.702
291.538;  108.914;   -0.684;  881.108
292.137;  108.812;   -2.845;  792.581
292.736;  114.066;   -0.144;  975.101
293.335;  108.693;   -6.352;  735.086
293.934;  110.411;   -7.642;  781.677
294.532;  111.329;   -4.992; 1031.958
295.131;   96.948;   -5.478;  834.394
295.730;   95.791;   -6.549;  809.588
296.328;   94.227;   -9.558;  783.442
296.927;   95.466;   -8.118;  779.652
297.525;   97.562;   -6.908;  781.236
298.124;   86.247;   -9.195;  654.009
298.722;   91.052;   -8.198;  761.933
299.321;   89.374;   -8.817;  708.597
299.919;   86.586;   -7.716;  751.918
300.518;   83.072;  -10.745;  689.338
301.116;   84.174;   -9.647;  691.381
301.715;   85.684;  -10.828;  730.222
302.313;   84.821;   -6.087;  704.943
302.911;   78.730;   -6.824;  733.830
303.509;   85.389;   -8.807;  925.627
304.108;   82.009;   -8.198;  760.383
304.706;   82.661;   -6.218;  801.664
305.304;   76.517;   -7.185;  796.707
305.902;   82.529;   -8.568;  784.484
306.500;   78.505;   -7.737;  728.200
307.098;   76.847;   -6.026;  746.560
307.696;   74.536;   -7.176;  780.432
308.294;   75.813;   -8.656;  731.359
308.892;   78.395;   -6.838;  759.769
309.490;   74.322;   -2.596;  712.161
310.088;   71.914;   -4.485;  788.444
310.686;   76.098;   -3.907;  821.749
311.284;   72.940;   -2.806;  766.040
311.882;   70.825;   -2.845;  731.225
312.480;   66.391;   -3.274;  697.167
313.078;   69.028;   -3.645;  808.331
313.675;   70.859;   -4.997;  691.600
314.273;   66.306;   -0.894;  797.837
314.871;   64.427;   -2.854;  589.829
315.468;   62.011;   -3.644;  652.090
316.066;   65.848;   -3.947;  694.427
316.664;   58.634;   -1.824;  656.351
317.261;   63.341;    1.565;  910.128
317.859;   58.411;   -3.955;  768.735
318.456;   60.789;   -2.886;  830.096
319.054;   56.971;   -0.995;  787.828
319.651;   54.864;   -1.765;  759.928
320.249;   55.167;   -3.685;  810.188
320.846;   52.404;   -3.736;  714.286
321.443;   50.667;   -2.065;  832.135
322.041;   47.379;   -5.635;  812.315
322.638;   45.517;   -5.985;  701.456
323.235;   48.099;   -6.677;  665.683
323.833;   46.659;   -3.497;  740.354
324.430;   40.694;   -6.756;  615.900
325.027;   42.864;   -7.647;  876.855
325.624;   43.631;   -7.598;  644.532
326.221;   40.833;   -5.848;  689.717
326.818;   39.413;   -5.777;  818.332
327.415;   41.921;   -8.769;  748.828
328.012;   42.158;   -6.299;  690.585
328.609;   41.045;   -6.639;  731.389
329.206;   38.371;   -6.358;  778.621
329.803;   37.174;   -8.698;  737.841
330.400;   39.023;   -8.379;  704.260
330.997;   40.115;   -6.178;  817.147
331.594;   37.955;   -5.646;  788.185
332.191;   42.686;   -6.928;  728.722
332.787;   44.265;   -6.057;  844.463
333.384;   42.061;   -6.445;  763.093
333.981;   38.807;   -8.002;  815.687
334.578;   40.876;   -8.443;  708.378
335.174;   43.992;   -6.053;  731.469
335.771;   45.142;   -5.791;  836.456
336.367;   40.739;   -6.570;  710.631
336.964;   42.731;   -6.741;  793.266
337.561;   44.529;   -5.710;  731.112
338.157;   40.871;   -3.928;  911.916
338.754;   35.756;   -5.577;  796.589
339.350;   35.420;   -9.667;  722.493
339.946;   39.247;   -5.269;  773.135
340.543;   30.306;   -4.485;  846.136
341.139;   24.905;   -7.584;  720.836
341.735;   23.172;   -8.553;  772.593
342.332;   22.776;   -4.984;  691.472
342.928;   24.521;   -3.475;  795.394
343.524;   17.650;   -6.653;  761.684
344.120;   14.468;   -7.173;  738.562
344.716;   17.794;   -4.385;  723.717
345.313;   16.395;   -3.565;  795.342
345.909;   10.921;   -7.495;  627.336
346.505;   13.180;   -8.276;  740.247
347.101;   13.693;   -5.697;  827.864
347.697;   15.017;   -4.767;  785.398
348.293;    8.443;   -7.226;  627.244
348.889;    9.660;   -7.547;  745.914
349.485;   10.526;   -9.147;  688.205
350.081;   10.786;   -6.568;  772.592
350.676;    6.002;   -6.516;  691.606
351.272;   10.689;   -7.378;  809.530
351.868;   10.130;   -6.759;  780.497
352.464;    8.553;   -4.798;  723.932
353.059;    3.878;   -7.977;  646.017
353.655;    6.886;   -8.769;  777.063
354.251;    8.877;   -5.920;  759.845
354.846;    3.508;   -7.647;  740.646
355.442;    1.190;   -6.956;  753.071
356.038;    2.836;   -9.928;  751.708
356.633;    3.350;   -7.698;  728.594
357.229;    1.985;   -6.307;  724.757
357.824;   -0.534;   -7.647;  703.600
358.420;   -1.596;  -10.047;  679.726
359.015;    0.263;   -7.458;  695.357
359.610;    1.145;   -5.748;  763.920
360.206;   -5.205;   -9.346;  603.240
360.801;   -2.609;  -11.268;  646.503
361.396;    0.577;   -8.789;  725.975
361.992;   -4.023;   -6.347;  668.220
362.587;   -7.543;   -6.476;  670.160
363.182;   -5.503;   -9.457;  689.631
363.777;   -3.576;   -7.147;  738.242
364.372;   -3.540;   -5.507;  737.314
364.967;   -7.985;   -6.386;  680.744
365.563;   -3.998;   -7.858;  815.567
366.158;   -5.775;   -8.517;  685.161
366.753;   -5.703;   -8.728;  649.263
367.348;   -6.842;   -7.677;  746.056
367.942;   -7.989;  -10.387;  697.298
368.537;   -8.409;   -7.187;  754.245
369.132;   -8.000;   -8.587;  703.428
369.727;  -12.043;   -8.606;  638.079
370.322;  -11.232;  -10.426;  580.186
370.917;  -11.060;   -5.776;  710.646
371.511;   -7.166;   -6.007;  861.834
372.106;  -11.254;   -6.686;  776.964
372.701;  -15.333;   -9.335;  585.988
373.296;   -8.463;   -6.777;  863.135
373.890;  -12.659;   -7.546;  647.840
374.485;  -15.237;   -8.755;  691.199
375.079;  -11.584;   -9.797;  738.685
375.674;   -9.649;   -6.327;  812.970
376.268;  -13.673;   -9.046;  691.759
376.863;  -20.253;   -7.993;  580.327
377.457;  -13.784;   -9.206;  662.490
378.052;  -14.650;   -5.345;  764.884
378.646;  -15.664;   -5.605;  741.167
379.240;  -17.253;   -6.825;  721.176
379.835;  -15.453;  -10.476;  636.978
380.429;  -17.338;   -8.676;  562.557
381.023;  -16.819;   -4.945;  779.205
381.617;  -19.082;   -8.094;  680.106
382.212;  -16.491;  -10.646;  685.303
382.806;  -15.208;   -8.136;  760.690
383.400;  -19.182;   -7.855;  672.281
383.994;  -20.206;   -8.125;  664.870
384.588;  -15.963;   -7.637;  697.701
385.182;  -13.929;   -7.458;  726.624
385.776;  -16.240;   -6.277;  706.875
386.370;  -19.744;   -7.485;  681.968
386.964;  -18.012;   -9.416;  684.155
387.558;  -15.481;   -8.518;  598.360
388.152;  -19.755;   -7.096;  681.959
388.745;  -17.955;   -7.656;  814.707
389.339;  -16.357;   -8.927;  747.642
389.933;  -14.807;   -9.538;  695.370
390.527;  -15.053;   -5.857;  859.029
391.120;  -22.919;   -9.455;  595.318
391.714;  -19.876;   -9.746;  711.633
392.308;  -15.742;   -7.857;  780.253
392.901;  -19.159;   -9.106;  642.460
393.495;  -21.815;  -10.365;  595.414
394.089;  -19.405;   -9.696;  760.452
394.682;  -19.402;   -7.016;  697.188
395.275;  -19.625;   -8.466;  719.927
395.869;  -22.235;   -8.985;  667.314
396.462;  -19.882;  -11.496;  616.609
397.056;  -15.712;   -7.838;  776.621
397.649;  -20.088;   -6.895;  731.575
398.242;  -18.549;   -5.017;  712.645
398.836;  -17.121;   -8.787;  766.408
399.429;  -17.319;   -8.967;  631.041
400.022;  -21.577;   -8.815;  665.902
400.615;  -18.701;   -6.276;  805.609
401.208;  -17.246;   -8.407;  691.451
401.802;  -18.872;   -7.296;  699.329
402.395;  -20.020;   -7.585;  683.502
402.988;  -20.835;   -8.015;  696.627
403.581;  -17.823;   -9.577;  646.878
404.174;  -15.289;   -7.588;  686.568
404.767;  -18.248;   -7.906;  638.583
405.360;  -21.429;   -7.875;  621.445
405.953;  -14.803;   -8.127;  759.034
406.545;  -14.546;   -7.198;  725.342
407.138;  -18.728;   -8.916;  618.350
407.731;  -17.296;   -9.767;  613.303
408.324;  -13.275;  -10.659;  660.554
408.917;  -14.422;   -8.068;  681.864
409.509;  -16.266;   -9.837;  740.396
410.102;  -18.680;   -8.146;  643.948
410.695;  -11.985;   -7.969;  665.758
411.287;  -13.465;   -8.579;  599.821
411.880;  -13.737;   -6.968;  585.421
412.472;  -17.391;   -9.487;  613.092
413.065;  -14.152;  -10.338;  629.408
413.657;  -12.244;   -9.169;  576.678
414.250;  -11.095;  -10.119;  646.681
414.842;  -13.745;   -9.938;  676.353
415.434;  -11.941;  -10.409;  570.463
416.027;   -6.991;   -9.591;  652.196
416.619;   -8.686;   -7.379;  713.400
417.211;  -10.214;   -9.159;  599.352
417.804;   -6.102;   -9.191;  628.499
418.396;   -9.897;   -8.159;  607.643
418.988;   -7.254;   -6.960;  659.238
419.580;  -10.589;  -11.389;  568.276
420.172;   -8.629;  -13.460;  536.196
420.764;   -3.973;  -10.701;  672.482
421.356;   -4.902;   -8.961;  636.898
421.948;   -6.318;   -9.770;  677.661
422.540;   -1.464;   -8.832;  680.027
423.132;   -1.412;   -8.153;  600.641
423.724;   -4.960;   -8.481;  561.267
424.316;   -3.489;   -9.261;  621.345
424.908;    0.459;   -9.643;  591.517
425.500;    1.097;   -8.663;  647.978
426.092;    2.079;   -8.503;  648.268
426.683;    0.417;  -10.522;  684.836
427.275;    3.003;  -11.734;  641.471
427.867;    4.511;  -10.264;  668.948
428.458;    6.532;   -7.644;  732.344
429.050;    3.551;   -7.853;  680.749
429.642;    5.472;   -8.904;  743.124
430.233;    6.498;  -10.795;  569.356
430.825;    7.964;   -7.665;  724.809
431.416;    5.423;   -8.843;  698.241
432.008;    9.364;   -9.885;  651.723
432.599;    8.930;   -9.966;  656.073
433.190;    6.490;   -9.164;  637.670
433.782;    5.809;   -8.584;  590.395
434.373;   14.052;   -8.296;  884.765
434.964;   12.062;   -9.896;  602.920
435.556;   10.381;   -8.255;  634.537
436.147;   12.614;   -8.075;  758.490
436.738;   12.194;   -9.716;  701.099
437.329;   18.641;   -7.318;  721.723
437.920;   11.222;   -6.694;  666.688
438.511;   10.674;   -9.644;  564.526
439.103;   17.843;   -9.427;  623.998
439.694;   19.736;  -10.748;  681.583
440.285;   21.395;   -7.997;  764.432
440.876;   18.315;  -10.046;  845.738
441.466;   17.752;  -13.467;  575.162
442.057;   23.253;   -9.329;  665.814
442.648;   23.299;   -7.707;  746.255
443.239;   19.558;   -9.017;  620.477
443.830;   25.573;  -10.279;  704.958
444.421;   27.432;  -12.630;  655.474
445.011;   23.954;   -8.697;  693.619
445.602;   24.061;   -7.787;  743.126
446.193;   25.560;  -13.329;  488.117
446.783;   30.010;   -9.171;  640.397
447.374;   26.257;   -7.457;  692.759
447.964;   25.628;   -9.277;  713.770
448.555;   35.141;   -9.041;  822.742
449.145;   31.228;   -8.969;  662.853
449.736;   32.138;   -6.809;  803.179
450.326;   31.517;   -7.229;  713.626
450.917;   35.968;  -11.391;  675.324
451.507;   36.203;   -9.501;  600.661
452.097;   37.020;   -8.460;  746.267
452.688;   37.703;  -10.080;  742.160
453.278;   36.916;  -12.861;  566.840
453.868;   42.890;   -8.372;  793.550
454.458;   39.703;   -8.131;  651.141
455.048;   40.497;   -8.520;  711.783
455.639;   41.983;  -13.632;  567.096
456.229;   45.692;  -10.143;  710.694
456.819;   48.167;   -9.163;  751.158
457.409;   47.147;   -8.652;  773.993
457.999;   50.537;   -9.933;  737.505
458.589;   50.898;  -10.363;  686.606
459.179;   50.966;  -10.633;  717.658
459.769;   48.250;  -12.442;  627.099
460.358;   53.399;   -9.844;  797.262
460.948;   53.042;   -9.924;  689.503
461.538;   54.666;  -10.484;  660.677
462.128;   52.851;  -10.703;  664.934
462.717;   59.229;  -11.486;  710.326
463.307;   62.311;  -10.767;  705.846
463.897;   58.326;   -8.814;  656.942
464.486;   56.990;   -8.182;  837.128
465.076;   62.370;   -9.985;  733.776
465.666;   66.056;  -10.447;  652.900
466.255;   64.160;   -7.754;  785.651
466.845;   62.368;  -10.884;  666.749
467.434;   65.589;  -12.525;  725.873
468.023;   66.131;  -11.456;  658.357
468.613;   63.880;   -9.173;  713.946
469.202;   67.811;   -9.306;  646.507
469.791;   73.243;   -8.917;  737.811
470.381;   73.925;   -9.657;  742.813
470.970;   74.743;   -9.947;  711.099
471.559;   73.638;   -9.256;  733.291
472.148;   76.447;  -13.397;  675.737
472.738;   79.465;   -9.928;  765.466
473.327;   79.847;  -10.897;  637.529
473.916;   78.179;   -8.526;  737.446
474.505;   82.653;  -11.078;  751.703
475.094;   85.678;   -9.559;  806.570
475.683;   85.973;   -8.838;  797.699
476.272;   86.149;  -10.198;  730.632
476.861;   88.393;  -11.489;  706.754
477.449;   95.207;  -10.721;  728.487
478.038;   90.380;   -9.818;  692.513
478.627;   90.081;   -9.887;  714.852
479.216;   97.848;  -10.030;  769.441
479.805;  100.666;   -9.401;  783.375
480.393;  101.767;   -5.739; 1008.945
480.982;   99.314;   -7.838;  874.501
481.571;  105.643;   -9.111;  858.333
482.159;  106.456;  -10.601;  705.386
482.748;  106.034;   -8.500;  821.385
483.336;  110.437;   -9.241;  858.209
483.925;  110.653;  -10.440;  774.373
484.513;  117.353;  -11.063;  758.962
485.102;  115.135;   -9.540;  810.965
485.690;  123.714;   -6.742; 1011.050
486.278;  124.945;   -8.442;  979.329
486.867;  125.682;  -10.472;  809.662
487.455;  128.130;   -8.811;  898.229
488.043;  128.774;  -10.721;  748.361
488.631;  137.696;  -10.393; 1005.079
489.220;  140.761;  -10.843;  908.626
489.808;  140.939;  -10.572;  741.415
490.396;  148.344;  -10.482;  914.645
490.984;  154.190;  -11.542;  830.161
491.572;  164.978;   -8.463;  940.315
492.160;  168.643;   -8.491;  919.081
492.748;  177.269;   -9.681;  884.341
493.336;  195.099;  -10.493; 1019.693
493.924;  219.957;   -9.354;  958.077
494.512;  247.905;   -9.132; 1066.638
495.100;  280.536;   -9.001; 1103.280
495.687;  328.597;  -11.924; 1206.373
496.275;  389.991;  -11.193; 1150.796
496.863;  479.832;   -9.241; 1281.171
497.451;  582.990;  -11.341; 1386.805
498.038;  672.977;  -11.364; 1556.729
498.626;  775.274;   -8.104; 1741.407
499.214;  939.525;   -8.842; 2016.609
499.801; 1110.711;  -10.112; 2220.633
500.389; 1295.280;  -11.953; 2312.494
500.976; 1531.371;  -10.023; 2744.849
501.564; 1812.280;   -8.662; 3148.565
502.151; 2149.988;  -10.531; 3515.999
502.738; 2494.556;  -13.853; 3971.274
503.326; 2996.403;  -10.794; 4403.796
503.913; 3530.375;   -8.663; 5161.749
504.500; 3854.006;  -10.172; 5986.420
505.088; 4154.821;  -13.472; 6381.201
505.675; 4810.474;  -10.924; 6925.547
506.262; 5541.936;   -8.551; 7619.060
506.849; 6304.620;  -10.523; 8733.969
507.436; 6959.097;  -10.834; 9790.121
508.023; 7194.814;   -9.093; 9985.472
508.610; 7577.686;  -10.073;10434.618
509.197; 8105.448;   -9.500;11198.435
509.784; 9331.337;  -13.242;12391.194
510.371;10069.033;  -10.964;13603.713
510.958; 9942.483;   -9.772;14426.586
511.545;10970.017;   -7.842;15243.775
512.132;11233.350;  -12.184;15945.876
512.719;11357.203;   -9.733;16340.369
513.305;13110.151;   -9.172;18011.766
513.892;14641.681;   -9.581;19754.971
514.479;16420.127;  -10.253;20967.805
515.066;18567.910;   -8.183;22299.793
515.652;19873.762;   -9.253;22908.660
516.239;20832.559;   -9.412;23798.875
516.825;23221.652;  -11.153;25567.275
517.412;23224.201;  -10.263;28154.959
517.998;23373.863;   -8.802;28344.111
518.585;23046.838;  -10.401;27134.219
519.171;22937.697;  -12.744;27268.576
519.758;24790.336;  -11.793;28964.129
520.344;26924.678;   -8.912;30664.494
520.930;26696.969;  -10.901;32550.605
521.516;27388.691;  -12.034;35422.895
522.103;28488.354;  -10.473;38280.004
522.689;30049.568;   -8.311;37835.117
523.275;33752.965;  -10.691;37288.613
523.861;35192.324;  -11.193;37281.395
524.447;35842.703;  -11.484;37846.949
525.033;35898.641;   -7.702;38321.949
525.619;35715.738;  -11.241;38579.285
526.205;36935.711;  -12.152;40622.875
526.791;36566.523;  -11.423;42258.836
527.377;33815.078;   -7.981;42966.902
527.963;34397.941;   -9.450;42018.949
528.549;38134.578;  -11.351;42476.828
529.135;40064.055;  -10.202;41854.852
529.721;39163.047;   -8.672;41237.711
530.306;37480.195;   -9.111;41259.445
530.892;38980.379;  -11.252;41506.047
531.478;41380.352;  -10.432;43559.613
532.063;44047.879;  -10.721;47695.563
532.649;45900.215;   -7.450;50808.324
533.235;46377.672;  -11.811;51787.500
533.820;46641.688;   -9.383;52145.035
534.406;46150.102;   -9.400;51133.488
534.991;45206.336;   -8.861;49996.805
535.576;43527.402;  -10.612;48882.852
536.162;41849.367;   -7.322;46942.285
536.747;43073.480;   -9.360;45711.746
537.333;45548.020;  -10.450;48510.180
537.918;47257.902;  -12.610;50439.891
538.503;48533.211;  -12.132;50863.711
539.088;46010.813;  -10.831;50906.922
539.673;43278.852;  -11.220;52621.965
540.259;44871.813;  -11.481;52368.094
540.844;48061.297;  -11.462;50879.109
541.429;49691.766;   -7.869;52077.777
542.014;50492.082;  -11.859;52716.695
542.599;49989.699;  -11.061;52363.281
543.184;49201.535;  -12.300;53187.137
543.769;48637.293;   -9.369;54697.605
544.354;48811.715;  -12.020;53913.914
544.938;46028.898;  -10.350;49680.164
545.523;43597.902;  -10.841;47386.277
546.108;45130.883;   -8.579;49151.949
546.693;47561.859;   -8.818;51384.637
547.278;48652.160;  -11.331;51853.254
547.862;45267.586;  -10.292;51173.750
548.447;41172.125;   -8.349;51691.395
549.031;42213.336;  -10.838;52456.703
549.616;47507.082;  -11.681;52714.516
550.201;50774.742;  -11.140;52414.598
550.785;48930.164;   -8.649;52355.059
551.370;48728.895;  -11.889;54589.453
551.954;48793.016;  -11.239;58267.348
552.538;48573.816;   -8.850;59062.176
553.123;49838.105;  -10.829;58115.285
553.707;50073.758;   -8.887;56556.285
554.291;48925.848;  -10.430;56201.668
554.876;46890.113;   -9.799;55335.762
555.460;47863.648;  -10.018;54155.703
556.044;49078.992;   -7.307;53721.484
556.628;46137.137;  -12.229;53731.016
557.212;42986.004;   -9.820;54312.531
557.796;42472.832;   -9.109;53797.773
558.380;44558.656;   -9.707;56145.984
558.964;43578.441;  -10.980;57277.930
559.548;43748.098;  -12.010;56459.641
560.132;47097.984;   -7.928;54434.543
560.716;48797.125;  -10.247;54800.617
561.300;48633.012;  -11.250;57606.945
561.884;50246.832;  -10.568;58972.445
562.467;48643.832;   -9.727;57327.570
563.051;47316.605;  -11.847;54962.434
563.635;46235.121;  -10.747;52594.473
564.219;42970.488;  -13.108;50610.410
564.802;39872.688;  -11.417;49551.180
565.386;40897.082;  -10.457;48370.953
565.969;42606.191;   -8.959;48178.871
566.553;41949.324;  -10.328;49957.305
567.136;40573.480;  -10.257;50369.594
567.720;40463.074;  -10.186;49492.004
568.303;40856.934;  -10.027;50616.352
568.887;41824.082;  -10.397;50727.148
569.470;40035.004;   -8.185;51698.379
570.053;38853.238;  -11.596;52122.078
570.637;38647.805;  -11.378;52536.438
571.220;38486.293;   -9.138;51186.098
571.803;37664.352;   -7.675;51032.762
572.386;36221.789;   -8.976;49609.887
572.969;33956.043;  -12.477;48285.926
573.552;34913.770;   -9.767;47624.285
574.135;35493.836;   -8.175;45498.641
574.718;32232.029;  -11.096;41970.434
575.301;30406.125;  -11.966;41447.137
575.884;28580.221;  -12.836;40923.836
576.467;32496.352;   -9.116;45267.723
577.050;33342.301;  -10.536;48175.543
577.633;34231.668;  -11.027;47729.328
578.216;35095.684;   -9.946;47579.793
578.799;35057.965;   -9.645;47820.996
579.381;35965.059;   -9.446;48115.551
579.964;37413.105;  -12.217;47333.766
580.547;38017.125;  -10.586;46668.969
581.129;38006.262;   -8.374;44466.141
581.712;35914.020;  -10.434;44164.922
582.294;34017.832;  -10.896;46477.855
582.877;34062.313;   -8.906;48244.254
583.459;34689.363;   -9.994;47437.895
584.042;35177.691;  -10.084;46943.219
584.624;35217.148;  -13.534;46792.227
585.206;32859.246;  -12.716;46557.250
585.789;31877.885;  -11.614;45793.773
586.371;28370.428;  -10.203;43836.391
586.953;24167.879;  -10.314;42972.492
587.536;24739.682;   -9.776;42487.211
588.118;28761.195;   -9.821;42086.414
588.700;32584.734;  -10.073;43389.930
589.282;32366.777;  -12.395;43646.039
589.864;32021.709;  -11.514;43438.109
590.446;32208.246;  -10.803;43151.926
591.028;31627.385;  -11.043;42781.867
591.610;31826.672;  -13.244;42839.098
592.192;31530.230;  -11.095;42820.402
592.774;30045.742;  -10.823;40724.277
593.356;29039.805;  -11.052;39874.789
593.937;30314.268;  -11.664;39980.648
594.519;34049.063;  -10.454;42069.633
595.101;36855.828;  -10.322;42976.031
595.683;36092.117;  -10.042;44084.441
596.264;32401.379;  -14.334;43478.797
596.846;33518.785;  -10.863;43803.672
597.427;32576.457;   -9.901;42986.934
598.009;31207.514;  -10.911;42832.219
598.591;31780.850;  -10.483;42580.086
599.172;33375.574;   -9.663;43061.805
599.753;34238.918;  -10.631;41691.469
600.335;34549.762;   -9.371;40692.520
600.916;32542.238;  -13.992;39982.422
601.498;31981.820;   -8.352;40318.617
602.079;32648.797;   -8.411;40670.609
602.660;32435.779;  -10.841;41450.898
603.241;32063.199;  -12.963;41137.738
603.823;32513.002;  -11.523;38868.797
604.404;32229.900;  -11.881;38182.785
604.985;33024.219;  -11.721;38078.047
605.566;32895.355;   -9.293;38056.633
606.147;31543.691;  -10.940;37020.418
606.728;33189.195;  -11.840;37883.359
607.309;34259.211;  -11.781;38748.273
607.890;34553.992;  -11.262;38850.230
608.471;32722.596;  -10.111;37457.918
609.051;32262.131;   -7.709;36066.457
609.632;29698.875;  -12.409;35991.074
610.213;30051.039;  -10.811;37402.641
610.794;31643.080;  -11.630;38383.363
611.374;35143.742;   -8.030;40562.387
611.955;35143.758;  -10.809;38533.727
612.536;33528.371;  -10.531;36951.789
613.116;33401.184;  -12.820;37197.891
613.697;34363.875;  -11.419;38411.125
614.277;35513.840;   -9.768;38673.938
614.858;32530.959;  -10.251;37075.863
615.438;29222.541;  -11.981;35092.906
616.019;27038.525;   -8.978;33666.301
616.599;29342.930;  -12.219;34189.023
617.179;31471.314;  -14.170;36952.047
617.760;32193.152;   -9.211;39582.574
618.340;32307.633;   -9.018;38943.977
618.920;32696.045;   -9.249;37594.156
619.500;32849.289;  -12.728;37866.938
620.080;33269.906;  -12.939;37869.043
620.660;34221.348;  -11.586;36868.617
621.241;33813.371;  -11.538;36352.309
621.821;32532.795;  -11.398;35459.520
622.401;31216.232;  -10.179;35207.414
622.980;31344.139;  -11.587;35980.422
623.560;32812.051;  -12.888;37351.328
624.140;31068.186;  -13.149;34388.582
624.720;26820.395;   -9.928;32368.764
625.300;26303.420;  -10.869;32638.629
625.880;29008.719;   -8.617;34599.035
626.459;30100.641;  -12.138;36831.738
627.039;32641.496;  -12.267;38299.098
627.619;35995.688;   -7.476;38289.574
628.198;37545.238;  -11.347;37220.695
628.778;34869.539;  -11.678;37632.563
629.357;32043.457;  -12.438;38003.012
629.937;31231.137;   -9.576;38402.039
630.516;31198.725;  -11.096;37868.801
631.096;32221.252;  -11.828;35760.410
631.675;33516.652;  -11.565;35225.219
632.254;34126.988;  -11.845;35130.289
632.834;35647.906;  -11.545;35794.570
633.413;35156.867;  -10.887;35788.922
633.992;34653.195;  -10.175;34532.863
634.571;35175.102;   -9.704;33590.113
635.151;33679.094;  -10.815;34943.863
635.730;32461.514;  -11.617;35352.523
636.309;32292.396;  -10.836;35366.605
636.888;32907.500;   -9.755;36165.637
637.467;33058.254;  -11.684;37515.902
638.046;33264.738;  -11.987;39288.695
638.625;32741.205;  -10.455;38279.699
639.204;32431.273;  -11.234;37741.598
639.782;33321.379;  -12.023;38364.551
640.361;31738.424;  -11.506;36740.621
640.940;28733.895;  -12.316;34950.082
641.519;26657.109;  -11.616;34137.398
642.097;28723.672;   -9.266;35654.258
642.676;32506.943;  -12.936;35637.957
643.255;33240.984;   -9.966;36567.074
643.833;33859.602;   -8.916;37809.434
644.412;31748.934;  -10.936;37337.293
644.990;31152.641;  -12.176;37018.531
645.569;32198.363;  -12.246;36518.469
646.147;34878.109;  -12.107;36186.430
646.726;37421.605;  -12.937;36267.688
647.304;34511.027;  -12.547;36647.625
647.882;33470.742;  -12.597;39286.742
648.461;32754.723;   -9.427;39157.703
649.039;32813.934;   -8.937;35412.883
649.617;33614.410;  -11.067;34744.918
650.195;32111.844;  -10.657;35403.098
650.773;29561.020;  -10.097;35053.797
651.352;29017.641;  -11.887;33756.816
651.930;28057.443;  -13.557;31868.773
652.508;28054.297;  -11.767;33121.551
653.086;30784.900;  -10.777;33564.793
653.663;33561.645;  -12.067;34054.668
654.241;36181.926;  -14.918;35693.309
654.819;35754.957;  -11.788;36422.906
655.397;33683.191;  -11.268;38213.484
655.975;31926.605;  -11.738;39507.625
656.553;30080.793;  -11.018;39498.223
657.130;28820.219;  -12.848;40395.480
657.708;27794.770;  -10.098;39242.020
658.286;28929.260;  -11.678;38920.020
658.863;31449.969;  -11.498;40202.898
659.441;34020.586;  -11.008;39677.938
660.018;35681.059;  -11.048;40413.355
660.596;36594.406;  -12.058;39931.414
661.173;37338.395;  -14.158;39604.531
661.750;36767.664;  -12.298;39700.070
662.328;36336.844;  -10.699;39292.809
662.905;35703.676;  -12.119;38235.648
663.482;31769.457;  -11.829;36212.305
664.060;28088.699;  -11.009;35944.945
664.637;31233.742;  -10.369;35170.785
665.214;33711.176;  -10.459;34197.523
665.791;32878.859;  -12.599;34549.520
666.368;30421.262;  -12.919;35118.578
666.945;28804.389;  -10.699;36019.418
667.522;29845.850;  -11.359;36048.438
668.099;30328.633;  -13.529;36243.914
668.676;28956.795;  -10.229;35958.875
669.253;28490.482;   -9.279;37384.730
669.830;28184.070;  -11.370;36779.629
670.407;28190.402;  -10.950;35231.289
670.984;29266.740;  -12.850;35544.270
671.560;28009.604;   -8.440;35466.867
672.137;28853.426;  -13.520;34280.863
672.714;30302.172;  -13.620;34632.863
673.290;30685.160;  -10.450;35135.422
673.867;29761.375;  -10.960;36114.480
674.443;30799.119;  -13.300;36152.859
675.020;29005.822;  -12.370;35327.238
675.596;28253.525;  -11.250;35795.176
676.173;28912.809;  -11.080;35430.355
676.749;28807.514;  -13.220;33549.516
677.326;29879.445;  -13.000;32210.012
677.902;29634.604;  -12.701;32068.871
678.478;28161.932;  -12.801;32583.891
679.054;29115.289;   -8.601;32088.928
679.631;30283.672;  -12.631;30978.848
680.207;30945.041;   -9.451;33160.887
680.783;30287.383;  -11.701;35570.363
681.359;30801.990;  -12.701;36125.184
681.935;32783.195;  -13.271;35240.922
682.511;34697.023;  -10.791;34429.961
683.087;32650.557;  -10.791;34463.680
683.663;29253.078;   -8.121;34648.898
684.239;27084.119;  -13.261;34546.457
684.815;27725.990;  -10.581;35586.375
685.390;29647.297;   -9.961;35821.895
685.966;29221.086;  -11.182;35085.871
686.542;28386.922;  -13.512;34198.230
687.118;26364.510;  -11.472;32847.707
687.693;25235.057;  -10.152;32794.027
688.269;25667.814;  -14.442;33072.367
688.844;24766.949;  -11.852;33141.664
689.420;23786.063;  -13.942;33965.742
689.995;25105.920;   -9.702;34655.523
690.571;26930.742;  -11.312;33576.742
691.146;27182.188;  -14.332;32657.219
691.722;26822.129;  -11.192;32526.979
692.297;27502.385;  -10.962;33014.617
692.872;28885.260;  -11.082;34012.254
693.448;29708.451;  -14.732;34237.434
694.023;29146.797;  -12.363;34142.672
694.598;27186.100;  -12.393;34132.031
695.173;27732.006;  -11.023;34205.250
695.748;29338.213;  -12.743;32882.488
696.323;28675.252;  -11.103;32864.906
696.898;27806.729;   -8.123;33170.004
697.473;27492.111;  -12.603;32432.984
698.048;27956.354;  -12.553;31649.303
698.623;29343.727;  -12.573;30778.141
699.198;29142.697;  -12.743;31140.119
699.773;28434.836;  -12.843;31764.299
700.348;28850.500;  -16.683;31780.816
700.922;29997.400;  -11.403;32046.375
701.497;31487.061;  -11.253;32603.574
702.072;30733.266;  -10.044;34799.871
702.646;29966.410;  -13.054;35793.172
703.221;30580.781;  -11.414;35201.590
703.795;30117.164;  -10.644;34764.527
704.370;28321.367;  -13.484;34307.367
704.944;27484.004;  -12.144;33509.887
705.519;26899.906;  -12.024;31388.584
706.093;28493.547;  -11.234;31340.104
706.668;29636.773;   -9.874;32630.281
707.242;28710.254;  -12.404;32728.779
707.816;27090.963;  -10.644;32947.238
708.390;26648.314;  -11.174;33277.855
708.965;26533.309;  -10.324;33834.336
709.539;27094.496;  -12.014;33709.273
710.113;27517.316;  -12.295;33044.313
710.687;29082.113;  -10.965;31953.992
711.261;31154.402;  -13.685;30505.949
711.835;29693.072;  -15.335;30262.369
712.409;28324.059;  -13.785;31254.447
712.983;28470.604;  -10.525;32754.986
713.557;26833.959;  -13.175;34018.824
714.131;26735.711;  -13.245;34579.625
714.704;29991.480;  -13.175;33890.262
715.278;32412.182;  -11.545;33531.102
715.852;30779.701;  -10.975;33601.660
716.425;29039.664;  -10.075;33515.117
716.999;29386.920;  -12.185;33185.555
717.573;31678.404;   -9.685;33905.996
718.146;32619.746;  -10.516;35199.293
718.720;31338.314;  -12.106;35060.551
719.293;29682.375;  -12.386;34973.230
719.867;29527.033;  -12.456;36394.449
720.440;29352.789;  -10.686;36663.008
721.013;29525.859;  -12.596;35102.426
721.587;31183.227;  -13.956;33985.266
722.160;33314.906;   -9.806;33524.965
722.733;33941.336;  -11.676;32987.043
723.306;33226.691;  -14.276;33066.301
723.880;30890.084;  -12.126;33399.500
724.453;28492.215;  -10.156;33468.297
725.026;28195.504;  -12.956;33816.637
725.599;28437.670;  -11.676;32797.996
726.172;28815.297;  -12.337;33187.434
726.745;28955.164;  -11.277;35136.613
727.318;28956.064;  -11.927;35751.730
727.891;28229.721;  -13.607;35890.430
728.463;25914.885;  -11.327;34822.090
729.036;25709.934;  -11.917;32895.086
729.609;27395.326;  -12.697;31823.225
730.182;28263.143;  -11.787;31445.283
730.754;27919.502;  -12.957;32373.223
731.327;27661.045;  -11.017;33676.820
731.900;27368.234;  -12.797;33417.000
732.472;26721.836;  -10.677;31978.498
733.045;26125.467;  -12.797;30368.777
733.617;26246.510;  -13.908;30574.215
734.190;25168.424;  -12.258;31280.975
734.762;25137.047;  -13.438;31674.412
735.334;26279.930;  -11.758;31247.291
735.907;28994.000;  -11.158;29876.211
736.479;32427.760;  -11.258;29808.488
737.051;33039.914;  -10.918;30233.547
737.623;31922.705;  -11.038;31469.086
738.195;33023.215;  -12.188;31784.225
738.768;30858.563;  -11.378;32120.523
739.340;25073.135;  -12.598;32094.342
739.912;23179.535;  -11.568;31312.680
740.484;24920.488;   -9.348;31946.238
741.056;27562.582;  -12.628;32984.059
741.628;29444.383;  -13.349;33897.715
742.199;28384.471;  -11.309;33213.016
742.771;28695.848;  -12.699;31369.113
743.343;29765.078;  -11.919;31865.473
743.915;29761.807;  -11.679;32388.631
744.487;28448.258;  -12.249;31079.568
745.058;26152.752;  -11.119;30570.107
745.630;24747.916;   -9.439;29970.127
746.201;23867.838;  -11.949;29186.766
746.773;23977.693;  -12.639;28805.723
747.344;25196.264;  -11.039;29591.223
747.916;27418.338;  -12.549;31412.201
748.487;26476.385;  -12.659;32194.898
749.059;24761.107;  -13.059;32533.719
749.630;23914.908;  -12.080;32158.518
750.201;22248.240;  -13.100;30855.395
750.773;21444.824;  -15.310;28622.555
751.344;21078.889;  -12.240;28405.732
751.915;21087.592;  -11.960;28461.551
752.486;20189.697;  -13.200;27842.850
753.057;18937.463;  -15.230;27845.008
753.628;20092.094;  -13.130;27728.107
754.199;22653.551;  -12.720;27381.086
754.770;22894.553;  -10.680;25882.203
755.341;21544.211;  -11.010;25886.184
755.912;21024.820;  -12.990;26050.861
756.483;20367.160;  -11.110;26798.779
757.054;19869.125;  -12.190;27048.238
757.625;19795.896;  -13.981;26294.838
758.195;19842.875;  -11.041;26142.076
758.766;20882.705;  -11.861;26392.234
759.337;21311.604;  -11.461;26334.594
759.907;20776.311;  -15.001;27579.652
760.478;19632.469;   -9.681;28352.770
761.048;18485.232;  -12.421;27325.088
761.619;19390.959;  -11.761;26460.428
762.189;19974.471;  -12.391;26029.826
762.760;19239.865;  -10.201;26430.145
763.330;19716.619;  -10.811;26670.902
763.900;20317.846;  -10.261;26603.021
764.471;19352.500;  -13.061;25542.740
765.041;17978.100;  -11.051;24358.459
765.611;17814.178;  -11.032;23991.297
766.181;17992.545;  -10.532;24470.236
766.751;18378.557;  -13.502;24845.975
767.321;19565.979;  -11.392;24533.633
767.891;21323.123;  -11.522;24916.492
768.461;22623.697;  -13.672;24776.771
769.031;20179.594;  -14.652;24757.988
769.601;17308.975;  -10.182;24181.088
770.171;16173.301;  -11.752;23670.387
770.741;15307.656;  -12.272;22960.045
771.311;15061.510;  -13.112;22917.523
771.880;16028.072;  -14.122;23562.941
772.450;16748.164;  -11.782;24216.500
773.020;16896.479;  -12.642;24140.398
773.589;15978.028;  -13.043;24414.857
774.159;15396.139;  -11.783;23858.717
774.729;16268.111;  -13.473;22942.135
775.298;17128.197;  -14.523;22324.033
775.867;16772.557;  -12.013;21140.313
776.437;16040.006;  -12.113;20838.092
777.006;15599.173;  -13.543;20599.510
777.576;16177.555;  -12.523;20508.809
778.145;16380.995;  -12.173;20732.947
778.714;15740.736;  -12.153;21062.465
779.283;15033.192;  -11.833;20949.664
779.853;15202.953;  -13.483;20508.623
780.422;15388.535;  -12.933;20649.082
780.991;14929.657;  -13.173;21527.520
781.560;14619.335;  -10.224;22632.658
782.129;15061.902;  -12.684;23048.277
782.698;15154.344;  -11.284;23438.555
783.267;15041.564;  -11.684;23267.734
783.836;14789.807;  -10.974;22415.133
784.404;14363.940;  -13.534;20443.152
784.973;13562.909;  -16.734;19699.150
785.542;12427.088;  -12.594;19763.828
786.111;12053.877;  -11.644;20341.408
786.679;13137.428;  -11.384;20207.967
787.248;13421.016;  -12.014;19516.465
787.817;12247.474;  -12.804;18900.363
788.385;10983.509;  -11.994;17879.121
788.954;11273.361;  -12.564;17658.301
789.522;12253.322;  -12.225;17788.879
790.090;12299.984;  -13.775;18118.277
790.659;12129.569;  -12.485;18338.736
791.227;12821.149;  -12.295;18508.615
791.795;13475.537;  -13.415;17898.254
792.364;13971.119;  -12.995;17295.133
792.932;13758.196;   -8.365;16822.051
793.500;12669.591;  -11.925;17040.148
794.068;12809.573;  -13.245;17179.787
794.636;13651.367;  -13.815;16664.246
795.204;13694.555;  -13.375;16524.545
795.772;13445.387;  -12.125;17274.564
796.340;12608.600;  -13.855;17891.002
796.908;10947.524;  -13.456;17648.561
797.476;10074.865;  -13.116;17064.080
798.044;10319.565;  -13.226;16672.777
798.612;10657.361;  -11.236;17023.996
799.180;10554.300;  -10.476;16561.615
799.747;10193.240;  -11.746;15962.773
800.315; 9791.898;  -12.366;15296.992
800.883; 9205.527;  -14.616;14801.771
801.450; 9304.033;  -11.996;14534.430
802.018;10178.106;  -11.206;14173.248
802.585;10622.808;  -12.466;14029.547
803.153;10085.007;  -12.846;13836.846
803.720; 9447.926;  -12.136;13567.324
804.287; 9606.594;  -10.966;13360.622
804.855; 9767.340;   -9.797;13681.981
805.422; 8970.521;  -13.037;13536.560
805.989; 8218.666;  -12.697;13355.958
806.556; 8391.359;  -11.737;13747.896
807.124; 9109.758;  -11.997;13987.376
807.691; 8911.023;  -13.997;14038.674
808.258; 8311.904;  -10.927;14120.152
808.825; 8574.846;  -13.727;13860.111
809.392; 8655.104;  -11.847;13268.790
809.959; 8638.849;  -14.217;12680.389
810.526; 8601.055;   -8.277;12427.308
811.093; 8735.619;   -9.647;12030.105
811.659; 8784.193;  -10.987;11653.664
812.226; 8160.895;  -13.447;11637.183
812.793; 7645.896;  -14.418;11611.521
813.360; 7804.259;  -13.908;11885.181
813.926; 8332.112;  -12.918;12770.539
814.493; 8571.433;  -14.888;12677.638
815.060; 8101.537;  -12.758;11974.336
815.626; 7767.222;  -13.478;11594.715
816.193; 7706.375;  -13.898;11579.474
816.759; 7838.626;  -13.588;11666.972
817.325; 7866.971;  -12.018;11325.530
817.892; 7519.421;  -14.068;11105.369
818.458; 7530.567;  -13.458;10843.928
819.024; 7403.779;  -11.968;10714.406
819.591; 7167.168;  -11.028;10469.165
820.157; 7243.147;  -12.088;10235.523
820.723; 7328.997;  -12.599;10847.563
821.289; 7022.982;  -10.419;11040.980
821.855; 6816.907;  -10.939;10357.100
822.421; 6794.761;  -12.539; 9978.918
822.987; 6715.949;  -13.259; 9754.177
823.553; 6491.006;  -15.369;10065.755
824.119; 6337.220;  -10.779;10036.294
824.685; 6306.837;   -9.999;10029.192
825.251; 6152.608;  -11.819;10199.230
825.816; 6077.055;  -13.369; 9820.189
826.382; 5921.412;  -12.679; 9297.248
826.948; 5457.651;  -11.199; 9381.347
827.513; 5286.379;  -11.179; 9450.726
828.079; 5411.747;  -13.489; 9472.444
828.645; 5540.034;  -12.500; 9292.643
829.210; 5536.607;  -15.120; 9065.341
829.776; 5477.821;  -12.590; 9132.620
830.341; 5593.284;  -11.540; 9092.878
830.906; 5980.388;  -12.400; 9078.557
831.472; 5951.934;  -12.720; 8534.535
832.037; 5179.469;  -11.490; 8677.874
832.602; 4482.198;  -14.380; 8628.692
833.167; 4196.327;  -12.780; 8879.031
833.733; 4401.223;  -11.100; 9189.790
834.298; 4773.658;  -12.080; 9052.608
834.863; 4647.643;  -13.910; 8895.087
835.428; 4386.330;  -13.470; 8824.266
835.993; 4226.275;  -11.760; 8845.385
836.558; 4402.522;  -12.731; 8888.563
837.123; 4563.334;  -12.431; 8966.582
837.688; 4407.938;  -11.241; 8617.860
838.253; 4228.695;  -13.681; 8590.699
838.817; 4354.726;  -12.531; 8443.797
839.382; 4495.538;  -12.671; 8799.356
839.947; 4554.694;  -11.541; 8810.595
840.511; 4675.722;  -12.021; 8796.394
841.076; 4735.033;  -13.071; 8347.231
841.641; 4918.086;  -11.411; 8224.330
842.205; 5134.065;  -13.671; 8223.349
842.770; 5019.344;  -11.291; 8622.107
843.334; 4738.561;  -12.951; 8410.386
843.898; 4488.197;  -11.221; 8337.465
844.463; 4541.980;  -11.322; 8506.283
845.027; 4524.839;  -11.412; 8280.962
845.591; 4281.171;  -11.512; 8231.141
846.156; 4140.325;  -14.042; 7969.179
846.720; 4189.561;  -12.152; 7768.278
847.284; 4005.689;  -10.922; 7630.957
847.848; 3822.995;  -10.962; 7472.395
848.412; 3615.633;  -14.612; 7437.394
848.976; 3616.426;  -11.492; 7674.592
849.540; 3899.409;   -9.172; 7836.011
850.104; 4092.568;  -11.232; 7913.669
850.668; 4007.938;  -15.182; 7694.508
851.232; 3866.778;  -15.332; 7756.887
851.796; 3799.873;  -13.703; 7926.545
852.359; 3860.344;  -11.113; 7827.844
852.923; 3954.423;  -11.843; 7641.163
853.487; 3928.952;  -11.173; 7342.501
854.050; 3806.948;  -13.443; 7042.820
854.614; 3761.470;  -13.823; 7151.338
855.177; 3685.510;  -16.393; 7105.077
855.741; 3633.836;  -11.693; 6989.675
856.304; 3607.279;  -10.843; 6596.634
856.868; 3494.120;  -13.783; 6356.272
857.431; 3270.069;  -11.953; 6468.571
857.995; 3022.754;  -13.683; 6373.210
858.558; 2989.596;  -11.433; 6324.448
859.121; 3097.058;  -12.493; 6408.327
859.684; 3029.030;  -12.384; 6347.886
860.247; 2710.089;  -14.774; 6321.264
860.810; 2456.728;  -13.154; 6301.903
861.374; 2462.908;  -11.264; 6607.881
861.937; 2541.799;  -15.424; 6408.200
862.500; 2530.499;  -12.854; 6572.639
863.062; 2506.247;  -12.344; 6387.297
863.625; 2502.381;  -13.314; 6190.836
864.188; 2580.544;  -14.724; 5807.254
864.751; 2763.822;  -13.464; 5682.413
865.314; 3104.767;  -11.684; 5547.492
865.876; 3329.974;  -11.104; 5500.150
866.439; 3282.322;  -12.344; 5415.909
867.002; 3100.372;  -13.494; 5501.567
867.564; 2840.732;  -10.935; 5413.946
868.127; 2652.360;  -12.665; 5160.325
868.689; 2618.714;  -14.515; 5133.183
869.252; 2669.729;  -13.425; 5252.382
869.814; 2834.978;  -11.595; 5297.141
870.377; 2941.382;  -12.175; 5390.919
870.939; 2829.350;  -10.265; 5599.898
871.501; 2690.194;  -12.375; 5248.336
872.063; 2608.623;  -14.355; 4854.235
872.626; 2528.184;  -14.435; 4817.074
873.188; 2435.234;  -12.415; 4987.732
873.750; 2454.532;  -14.555; 4868.651
874.312; 2389.033;  -11.185; 4779.330
874.874; 2204.417;  -12.715; 4866.348
875.436; 2122.604;  -13.196; 4718.887
875.998; 2117.531;  -11.426; 4660.005
876.560; 2035.711;   -9.786; 4462.964
877.122; 1974.564;  -12.796; 4145.042
877.683; 1951.015;  -13.226; 4056.481
878.245; 1935.465;  -12.036; 3950.740
878.807; 1936.000;  -11.536; 4058.958
879.369; 1926.363;  -10.806; 3954.677
879.930; 1827.585;  -13.946; 3941.495
880.492; 1680.698;  -11.876; 4067.014
881.053; 1641.727;  -13.216; 3859.633
881.615; 1698.196;  -12.226; 3776.071
882.176; 1733.632;  -12.946; 3734.750
882.738; 1678.701;  -10.736; 3678.489
883.299; 1610.940;  -12.057; 3405.407
883.860; 1580.487;  -12.677; 3351.106
884.422; 1542.271;  -14.097; 3394.044
884.983; 1438.946;  -13.667; 3166.443
885.544; 1289.553;  -10.717; 3189.802
886.105; 1174.863;  -14.357; 3160.360
886.666; 1145.842;  -14.287; 3093.059
887.227; 1145.555;  -14.297; 2941.957
887.788; 1135.234;  -13.137; 2974.836
888.349; 1048.987;  -14.637; 2721.214
888.910;  964.300;  -12.247; 2696.493
889.471;  952.679;  -10.577; 2560.172
890.032;  947.130;  -12.937; 2558.190
890.593;  895.812;  -12.487; 2567.669
891.153;  824.771;  -11.898; 2460.307
891.714;  812.322;  -14.278; 2372.046
892.275;  815.743;  -13.308; 2309.505
892.835;  762.178;  -12.058; 2382.543
893.396;  682.332;  -15.268; 2295.502
893.956;  626.138;  -13.278; 2162.420
894.517;  589.776;  -11.968; 2125.439
895.077;  577.485;  -12.798; 2086.978
895.638;  554.876;  -11.908; 2126.316
896.198;  526.315;  -13.288; 1838.275
896.758;  503.301;  -12.198; 1892.813
897.319;  477.078;  -13.048; 1792.232
897.879;  436.055;  -13.718; 1762.751
898.439;  398.772;  -14.138; 1661.149
898.999;  387.024;  -13.659; 1781.468
899.559;  375.883;  -14.699; 1703.347
900.119;  352.581;  -14.339; 1537.525
900.679;  327.406;  -11.789; 1638.384
901.239;  304.023;  -13.629; 1527.902
901.799;  288.451;  -13.679; 1456.441
902.359;  273.830;  -13.679; 1357.140
902.919;  263.840;  -14.159; 1331.118
903.479;  254.507;  -13.419; 1317.257
904.038;  242.734;  -14.899; 1262.595
904.598;  229.423;  -14.339; 1152.034
905.158;  223.092;  -13.959; 1240.893
905.717;  219.678;  -12.749; 1233.691
906.277;  212.316;  -11.889; 1217.330
906.836;  203.988;  -12.870; 1222.408
907.396;  200.927;  -11.790; 1193.047
907.955;  199.077;  -13.750; 1182.526
908.515;  192.551;  -14.760; 1099.364
909.074;  185.557;  -12.540; 1092.863
909.633;  178.566;  -12.120; 1069.121
910.192;  177.702;  -12.550; 1196.460
910.752;  174.911;  -12.760; 1029.960
911.311;  170.822;  -14.750; 1009.780
911.870;  166.733;  -13.860;  971.460
912.429;  165.914;  -13.480; 1094.080
912.988;  162.478;  -12.370; 1081.060
913.547;  156.242;  -14.670;  940.380
914.106;  154.134;  -12.800;  999.420
914.665;  152.145;  -11.370;  984.020
915.224;  150.574;  -11.430; 1035.760
915.782;  149.784;  -12.260;  922.560
916.341;  149.902;  -12.540; 1049.840
916.900;  148.557;  -12.540;  925.260
917.458;  146.700;  -13.480;  884.220
918.017;  145.853;  -12.470;  942.600
918.576;  144.897;  -13.450;  904.440
919.134;  143.694;  -12.890;  837.980
919.693;  141.707;  -15.480;  893.060
920.251;  140.426;  -14.420;  876.500
920.809;  138.830;  -12.170;  839.580
921.368;  139.598;  -13.650;  885.360
921.926;  138.973;  -12.750;  842.940
922.484;  138.933;  -14.150;  903.360
923.042;  140.324;  -15.100;  880.340
923.601;  143.727;  -10.990;  998.680
924.159;  143.651;  -12.470;  935.560
924.717;  142.565;  -15.640;  841.080
925.275;  142.744;  -12.380;  903.240
925.833;  143.037;  -12.710;  779.320
926.391;  145.120;  -11.200;  938.380
926.949;  145.211;  -16.000;  857.680
927.506;  147.140;  -12.260;  903.500
928.064;  147.856;  -11.300;  877.580
928.622;  148.487;  -13.750;  880.100
929.180;  147.049;  -15.290;  814.180
929.737;  145.734;  -14.500;  808.540
930.295;  148.623;  -10.630;  928.480
930.853;  150.580;  -14.590;  849.100
931.410;  152.186;  -14.450;  821.120
931.968;  155.472;  -14.390;  940.660
932.525;  156.325;  -13.050;  909.380
933.082;  155.316;  -15.620;  811.440
933.640;  158.567;  -15.650;  925.900
934.197;  160.905;  -13.610;  886.360
934.754;  165.411;  -13.320;  897.780
935.312;  169.692;  -13.370;  863.340
935.869;  172.692;  -12.780; 1012.980
936.426;  169.926;  -14.480;  872.800
936.983;  172.765;  -13.180;  889.020
937.540;  173.191;  -15.710;  838.280
938.097;  174.200;  -14.980;  940.120
938.654;  176.687;  -13.060;  898.860
939.211;  177.707;  -12.760;  952.480
939.768;  177.161;  -16.230;  915.420
940.324;  177.214;  -10.940;  904.200
940.881;  176.112;  -12.570;  878.500
941.438;  175.285;  -13.650; 1021.200
941.995;  175.586;  -13.300;  992.560
942.551;  177.156;  -15.800;  875.620
943.108;  177.171;  -14.180;  937.920
943.664;  176.162;  -13.890;  869.340
944.221;  180.241;  -12.640; 1088.140
944.777;  177.741;  -14.700;  869.680
945.334;  176.310;  -13.010;  884.840
945.890;  178.299;  -13.480;  946.480
946.446;  178.538;  -14.920;  947.020
947.003;  176.551;  -13.860;  964.940
947.559;  176.465;  -12.000; 1063.040
948.115;  177.055;  -10.510; 1026.540
948.671;  175.957;  -12.760;  967.300
949.227;  172.695;  -15.390;  859.560
949.783;  169.241;  -15.570;  858.900
950.339;  168.600;  -12.800;  991.000
950.895;  166.370;  -13.780; 1023.840
951.451;  164.892;  -13.810;  925.280
952.007;  167.207;  -12.390;  998.540
952.563;  167.919;  -11.980;  937.780
953.118;  166.085;  -14.070;  904.940
953.674;  168.064;  -14.140;  935.780
954.230;  171.984;  -12.680;  949.640
954.785;  174.736;  -12.770;  936.640
955.341;  172.162;  -11.450;  998.160
955.897;  162.750;  -15.350;  834.660
956.452;  158.425;  -14.200;  953.840
957.008;  154.654;  -10.820; 1083.640
957.563;  151.506;  -13.200; 1009.540
958.118;  151.314;  -14.460;  877.700
958.674;  152.041;  -13.840;  946.780
959.229;  152.005;  -10.670; 1013.980
959.784;  152.956;  -17.040;  832.400
960.339;  155.235;  -12.970; 1001.280
960.894;  158.930;  -12.700;  963.760
961.449;  163.088;  -13.790;  859.960
962.004;  170.216;  -11.760; 1212.840
962.559;  167.721;  -14.840;  860.140
963.114;  162.237;  -14.530;  742.480
963.669;  159.613;  -12.780;  915.500
964.224;  155.961;  -14.330;  874.340
964.779;  149.057;  -14.380;  828.420
965.334;  145.711;  -12.460; 1017.860
965.888;  141.189;  -13.490;  875.360
966.443;  140.843;  -14.140;  972.380
966.998;  137.567;  -16.240;  819.460
967.552;  136.472;  -12.730;  908.380
968.107;  134.492;  -14.510;  868.300
968.661;  135.431;  -11.850;  922.440
969.216;  131.714;  -14.370;  856.280
969.770;  130.200;  -13.010;  917.200
970.324;  128.935;  -12.460;  923.140
970.879;  130.005;  -11.580;  947.180
971.433;  131.937;  -13.130;  952.720
971.987;  130.520;  -12.360;  895.340
972.541;  127.368;  -14.330;  917.100
973.095;  125.419;  -13.310; 1009.460
973.649;  119.992;  -15.830;  809.480
974.203;  122.157;  -15.830;  829.040
974.757;  125.451;  -13.480;  855.220
975.311;  128.559;  -13.720;  872.600
975.865;  128.975;  -15.780;  881.820
976.419;  128.784;  -14.290;  857.400
976.973;  125.092;  -13.210;  849.620
977.526;  118.830;  -12.300;  949.920
978.080;  105.732;  -14.840;  796.780
978.634;   96.652;  -13.100;  921.320
979.187;   87.622;  -12.300;  905.400
979.741;   83.499;  -12.020; 1018.380
980.294;   79.735;  -14.590;  789.160
980.848;   78.490;  -14.390;  717.220
981.401;   82.146;  -14.280;  816.540
981.955;   83.448;  -11.920;  844.300
982.508;   81.812;  -15.790;  746.340
983.061;   84.363;  -12.070;  915.260
983.615;   82.953;  -13.260;  798.800
984.168;   81.693;  -15.540;  770.080
984.721;   82.047;  -13.230;  880.760
985.274;   79.456;  -11.820;  867.500
985.827;   78.842;  -13.510;  834.220
986.380;   77.779;  -14.840;  721.340
986.933;   79.588;  -13.970;  864.800
987.486;   78.605;  -12.450;  861.920
988.039;   77.326;  -11.170;  863.100
988.591;   75.005;  -13.070;  893.260
989.144;   71.519;  -15.530;  737.260
989.697;   71.243;  -14.300;  758.740
990.250;   70.442;  -13.310;  858.100
990.802;   68.200;  -14.490;  755.860
991.355;   70.118;  -12.980;  974.880
991.907;   67.910;  -13.715;  864.320
992.460;   65.701;  -14.450;  753.760
993.012;   64.694;  -12.590;  749.540
993.565;   61.713;  -15.180;  711.360
994.117;   63.289;  -11.630;  950.780
994.669;   60.274;  -13.760;  701.320
995.221;   61.303;  -12.710;  791.920
995.774;   59.033;  -14.620;  787.580
996.326;   58.965;  -13.150;  740.220
996.878;   58.600;  -12.880;  838.420
997.430;   57.095;  -14.580;  699.860
997.982;   55.953;  -14.030;  750.140
998.534;   56.058;  -12.190;  739.060
999.086;   54.818;  -12.990;  738.220
999.638;   53.591;  -13.180;  661.380
1000.190;   51.879;  -14.970;  699.320
1000.741;   52.469;  -12.200;  742.700
1001.293;   52.240;  -13.400;  686.020
1001.845;   51.315;  -14.490;  676.640
1002.396;   51.513;  -15.280;  743.400
1002.948;   51.057;  -12.380;  737.400
1003.500;   50.061;  -13.260;  723.780
1004.051;   51.827;  -13.730;  907.580
1004.603;   50.297;  -12.300;  791.820
1005.154;   45.970;  -15.330;  608.980
1005.705;   46.090;  -12.800;  723.960
1006.257;   46.172;  -13.900;  707.220
1006.808;   43.450;  -14.430;  685.460
1007.359;   43.676;  -12.010;  763.240
1007.910;   41.818;  -12.690;  646.640
1008.461;   42.157;  -13.610;  732.940
1009.013;   39.423;  -14.990;  588.340
1009.564;   41.562;  -11.860;  793.520
1010.115;   39.460;  -12.640;  597.040
1010.665;   40.038;  -14.570;  602.160
1011.216;   39.255;  -15.190;  667.920
1011.767;   39.490;  -13.470;  697.920
1012.318;   39.995;  -13.760;  736.980
1012.869;   39.167;  -15.950;  679.000
1013.419;   37.269;  -15.880;  603.120
1013.970;   38.452;  -14.540;  666.640
1014.521;   37.698;  -13.220;  620.620
1015.071;   37.677;  -15.020;  670.380
1015.622;   35.768;  -17.510;  635.460
1016.172;   36.222;  -14.130;  596.820
1016.723;   36.192;  -14.220;  614.380
1017.273;   36.113;  -15.370;  604.160
1017.823;   36.177;  -15.290;  650.340
1018.374;   35.559;  -13.420;  611.760
1018.924;   35.338;  -11.740;  716.880
1019.474;   36.068;  -12.250;  718.880
1020.024;   34.480;  -15.850;  657.580
1020.574;   34.569;  -13.280;  726.160
1021.124;   35.783;  -13.560;  673.580
1021.674;   33.570;  -13.790;  559.120
1022.224;   34.235;  -14.610;  708.940
1022.774;   33.819;  -13.100;  668.820
1023.324;   34.695;  -11.470;  753.520
1023.874;   36.368;  -11.990;  875.760
1024.423;   33.201;  -14.550;  613.700
1024.973;   31.970;  -14.440;  610.760
1025.523;   32.347;  -13.250;  620.960
1026.072;   32.083;  -15.200;  606.420
1026.622;   31.347;  -14.590;  675.740
1027.172;   32.862;  -11.080;  715.660
1027.721;   31.820;  -14.010;  601.220
1028.270;   32.136;  -13.690;  663.400
1028.820;   31.065;  -15.380;  638.080
1029.369;   31.189;  -14.980;  612.700
1029.918;   31.043;  -13.100;  649.840
1030.468;   30.679;  -13.680;  564.780
1031.017;   30.993;  -13.770;  634.800
1031.566;   29.899;  -14.100;  608.900
1032.115;   30.699;  -11.770;  694.500
1032.664;   29.501;  -14.940;  596.480
1033.213;   30.007;  -13.370;  735.420
1033.762;   29.268;  -13.660;  635.620
1034.311;   29.458;  -13.650;  677.220
1034.860;   29.712;  -13.820;  691.000
1035.408;   28.741;  -12.860;  722.720
1035.957;   29.349;  -13.060;  719.540
1036.506;   27.420;  -14.510;  530.800
1037.055;   31.151;  -13.470;  844.320
1037.603;   27.663;  -14.800;  664.000
1038.152;   26.878;  -14.190;  534.760
1038.700;   27.247;  -11.810;  585.740
1039.249;   27.721;  -12.850;  681.220
1039.797;   26.765;  -14.610;  633.360
1040.345;   27.065;  -15.220;  705.420
1040.894;   26.473;  -13.480;  625.300
1041.442;   26.821;  -13.310;  632.200
1041.990;   25.085;  -14.510;  559.160
1042.538;   24.318;  -15.700;  536.180
1043.087;   25.392;  -13.910;  570.860
1043.635;   27.348;  -13.620;  670.500
1044.183;   24.872;  -14.230;  586.400
1044.731;   24.998;  -13.730;  576.000
1045.279;   24.976;  -13.970;  674.920
1045.827;   27.781;  -10.750;  892.400
1046.374;   24.233;  -15.230;  515.420
1046.922;   23.611;  -15.390;  590.580
1047.470;   25.489;  -12.320;  691.300
1048.018;   25.475;  -13.230;  647.960
1048.565;   24.812;  -13.390;  708.600
1049.113;   23.202;  -15.030;  557.000
1049.660;   24.088;  -12.540;  629.660
1050.208;   24.574;  -15.040;  675.640
1050.755;   23.422;  -14.680;  606.580
1051.303;   24.238;  -13.610;  686.820
1051.850;   23.513;  -14.340;  635.120
1052.397;   21.366;  -16.330;  473.960
1052.945;   22.236;  -15.710;  617.760
1053.492;   23.206;  -12.320;  741.840
1054.039;   23.508;  -13.730;  720.180
1054.586;   22.379;  -16.140;  557.240
1055.133;   22.487;  -14.020;  693.140
1055.680;   22.471;  -13.430;  646.620
1056.227;   22.132;  -14.570;  542.780
1056.774;   23.934;  -14.400;  794.980
1057.321;   20.384;  -14.230;  523.260
1057.868;   21.055;  -14.220;  651.320
1058.415;   21.909;  -14.060;  651.980
1058.961;   22.263;  -14.640;  678.940
1059.508;   21.086;  -13.970;  643.820
1060.055;   20.082;  -15.100;  581.780
1060.601;   21.123;  -12.180;  624.300
1061.148;   21.113;  -15.010;  616.820
1061.694;   20.185;  -14.750;  592.580
1062.241;   20.142;  -14.130;  596.320
1062.787;   21.174;  -14.770;  663.140
1063.334;   22.254;  -13.130;  808.560
1063.880;   19.847;  -14.420;  668.360
1064.426;   20.158;  -13.130;  706.820
1064.972;   19.374;  -13.960;  601.340
1065.518;   18.465;  -13.680;  566.640
1066.065;   19.174;  -15.720;  624.460
1066.611;   18.785;  -13.970;  598.800
1067.157;   19.151;  -13.920;  641.860
1067.703;   19.967;  -14.760;  668.480
1068.249;   18.327;  -14.490;  605.220
1068.794;   18.807;  -14.740;  626.880
1069.340;   18.481;  -13.220;  578.960
1069.886;   18.657;  -14.930;  590.700
1070.432;   17.509;  -14.700;  541.720
1070.977;   17.255;  -14.470;  601.080
1071.523;   18.601;  -14.330;  573.060
1072.068;   18.465;  -14.960;  582.000
1072.614;   16.540;  -16.220;  527.760
1073.160;   18.149;  -11.280;  687.040
1073.705;   16.987;  -15.990;  572.520
1074.250;   16.959;  -16.550;  559.900
1074.796;   17.633;  -14.600;  655.160
1075.341;   17.991;  -13.440;  664.100
1075.886;   17.473;  -14.450;  594.240
1076.431;   17.498;  -13.160;  649.880
1076.976;   16.290;  -14.710;  639.220
1077.521;   16.462;  -14.000;  583.080
1078.067;   15.796;  -14.470;  579.400
1078.612;   16.591;  -14.530;  661.620
1079.156;   15.362;  -15.660;  601.540
1079.701;   15.973;  -16.120;  693.260
1080.246;   16.942;  -12.960;  696.300
1080.791;   16.000;  -13.700;  625.020
1081.336;   16.794;  -15.540;  659.320
1081.880;   15.986;  -14.640;  649.680
1082.425;   15.142;  -14.220;  573.480
1082.970;   17.258;  -11.890;  717.040
1083.514;   15.184;  -13.820;  597.000
1084.059;   14.056;  -14.280;  586.720
1084.603;   13.945;  -12.890;  565.840
1085.147;   15.160;  -13.590;  645.220
1085.692;   15.716;  -14.050;  716.800
1086.236;   13.283;  -14.990;  503.140
1086.780;   16.052;  -12.640;  751.440
1087.325;   15.236;  -15.550;  654.620
1087.869;   15.014;  -14.980;  610.700
1088.413;   14.739;  -13.440;  705.040
1088.957;   13.327;  -12.170;  543.400
1089.501;   15.787;  -12.730;  766.640
1090.045;   14.784;  -14.650;  726.480
1090.589;   11.961;  -14.500;  569.920
1091.133;   13.690;  -12.320;  673.340
1091.676;   14.365;  -16.130;  591.940
1092.220;   12.795;  -13.930;  600.920
1092.764;   14.480;  -12.820;  706.960
1093.307;   13.811;  -11.700;  673.780
1093.851;   12.704;  -15.600;  556.540
1094.395;   13.308;  -13.920;  683.140
1094.938;   12.436;  -16.090;  632.520
1095.482;   12.448;  -13.820;  559.800
1096.025;   13.726;  -12.720;  710.880
1096.568;   13.729;  -12.100;  779.280
1097.112;   10.528;  -15.450;  508.180
1097.655;   12.430;  -14.310;  603.000
1098.198;   10.830;  -14.740;  600.180
1098.741;   10.672;  -15.550;  612.860
1099.285;   12.236;  -12.600;  657.300
1099.828;    9.943;  -15.050;  439.400
1100.371;   11.323;  -14.800;  608.160
1100.914;   11.495;  -16.480;  682.660
1101.457;   11.835;  -12.990;  679.900
1101.999;   10.333;  -14.110;  584.680
1102.542;   12.858;  -11.450;  641.440
1103.085;   11.351;  -13.350;  658.500
1103.628;   11.583;  -13.200;  762.060
1104.170;   10.330;  -12.310;  588.280
1104.713;   11.138;  -14.320;  646.700
1105.256;    9.652;  -16.110;  557.440
1105.798;    8.769;  -15.910;  499.980
1106.341;   11.390;  -12.200;  728.900
1106.883;   10.433;  -14.910;  521.340
1107.425;   10.324;  -14.960;  668.180
1107.968;   10.206;  -13.440;  612.380
1108.510;   10.409;  -14.010;  684.960
1109.052;    9.034;  -15.430;  612.620
1109.594;    9.066;  -15.290;  554.440
1110.136;    9.625;  -13.360;  643.220
1110.679;    8.776;  -13.820;  633.080
1111.221;    9.752;  -13.690;  604.460
1111.763;    8.351;  -14.890;  559.220
1112.304;    8.407;  -14.550;  547.140
1112.846;    9.411;  -12.760;  666.240
1113.388;   13.200;  -10.780;  942.180
1113.930;    8.878;  -12.690;  694.200
1114.472;    8.547;  -15.730;  606.540
1115.013;    6.882;  -14.620;  551.280
1115.555;    7.782;  -14.950;  587.100
1116.097;    7.596;  -16.460;  579.480
1116.638;    8.285;  -13.730;  684.600
1117.180;    8.189;  -13.810;  667.740
1117.721;    8.003;  -13.280;  568.580
1118.262;    8.220;  -15.080;  677.960
1118.804;    8.021;  -14.040;  637.340
1119.345;    6.985;  -15.430;  578.400
1119.886;    9.000;  -15.240;  704.040
1120.427;    7.452;  -15.820;  589.020
1120.969;    7.198;  -14.550;  597.920
1121.510;    6.766;  -14.030;  563.060
1122.051;    7.676;  -11.990;  723.580
1122.592;    6.184;  -16.490;  655.420
1123.133;    6.016;  -15.580;  547.940
1123.673;    7.576;  -12.850;  706.480
1124.214;    6.437;  -13.630;  612.460
1124.755;    6.889;  -14.830;  639.460
1125.296;    7.085;  -13.110;  627.320
1125.836;    8.247;  -11.320;  691.500
1126.377;    5.870;  -14.330;  599.660
1126.918;    6.694;  -12.800;  614.980
1127.458;    6.258;  -13.580;  622.220
1127.999;    7.673;  -10.330;  656.980
1128.539;    7.013;  -13.390;  694.240
1129.079;    6.003;  -16.420;  632.720
1129.620;    4.565;  -15.700;  558.100
1130.160;    5.293;  -14.790;  539.480
1130.700;    7.018;  -12.910;  640.840
1131.240;    6.062;  -15.610;  643.700
1131.781;    5.208;  -12.920;  619.680
1132.321;    5.071;  -15.300;  599.120
1132.861;    5.361;  -14.760;  564.200
1133.401;    4.504;  -15.470;  593.940
1133.941;    4.896;  -13.710;  626.280
1134.481;    4.746;  -11.820;  597.580
1135.020;    5.042;  -14.810;  609.160
1135.560;    5.170;  -13.660;  674.940
1136.100;    3.693;  -13.940;  501.160
1136.640;    3.495;  -15.410;  510.480
1137.179;    3.973;  -16.920;  537.960
1137.719;    3.880;  -16.430;  605.400
1138.258;    4.073;  -16.300;  587.360
1138.798;    4.619;  -13.710;  663.780
1139.337;    3.895;  -13.840;  482.840
1139.877;    3.635;  -16.140;  642.360
1140.416;    6.233;  -11.410;  878.060
1140.955;    3.133;  -12.820;  535.380
1141.494;    4.262;  -12.310;  669.280
1142.034;    3.310;  -16.280;  583.520
1142.573;    4.001;  -13.090;  646.280
1143.112;    3.135;  -13.770;  553.480
1143.651;    3.999;  -15.830;  536.480
1144.190;    3.213;  -15.010;  691.640
1144.729;    3.093;  -13.650;  607.420
1145.267;    3.986;  -13.670;  584.900
1145.806;    4.717;  -13.630;  637.040
1146.345;    3.103;  -14.160;  635.020
1146.884;    2.764;  -11.180;  622.500
1147.422;    1.884;  -15.890;  533.060
1147.961;    4.699;  -12.760;  708.460
1148.500;    2.733;  -15.220;  669.720
1149.038;    3.103;  -13.720;  632.500
1149.577;    3.007;  -13.250;  698.640
1150.115;    1.012;  -16.790;  452.280
1150.653;    2.352;  -15.810;  607.340
1151.192;    2.783;  -14.730;  552.920
1151.730;    2.158;  -13.660;  652.560
1152.268;    2.492;  -15.120;  589.520
1152.806;    1.828;  -15.580;  571.180
1153.344;    0.617;  -16.210;  577.640
1153.882;    1.825;  -12.810;  600.060
1154.421;    0.562;  -14.150;  470.620
1154.958;    1.173;  -15.360;  595.240
1155.496;    2.347;  -14.710;  645.280
1156.034;    2.064;  -13.640;  721.880
1156.572;    2.766;  -13.740;  667.060
1157.110;    0.293;  -16.960;  473.940
1157.647;    2.126;  -11.940;  676.960
1158.185;    1.052;  -14.090;  564.320
1158.723;    0.258;  -13.610;  509.200
1159.260;    1.307;  -14.760;  701.700
1159.798;    2.020;  -13.700;  658.160
1160.335;    1.279;  -13.820;  631.820

