
Integration time [ms]:   3.882
Averaging Nr. [scans]: 1000
Smoothing Nr. [pixels]: 0
Data measured with spectrometer [name]: 7414430SP
Wave   ;Sample   ;Dark     ;Reference
[nm]   ;[counts] ;[counts] ;[counts] 

288.544;  125.279;   10.292;  793.890
289.143;  129.400;    4.564;  681.602
289.742;  131.508;    6.144;  828.814
290.341;  119.283;    4.396;  789.841
290.940;  108.922;    0.938;  730.702
291.538;  110.415;   -0.684;  881.108
292.137;  110.276;   -2.845;  792.581
292.736;  114.261;   -0.144;  975.101
293.335;  110.107;   -6.352;  735.086
293.934;  111.483;   -7.642;  781.677
294.532;  113.101;   -4.992; 1031.958
295.131;   97.578;   -5.478;  834.394
295.730;   96.611;   -6.549;  809.588
296.328;   94.821;   -9.558;  783.442
296.927;   95.983;   -8.118;  779.652
297.525;   97.030;   -6.908;  781.236
298.124;   87.076;   -9.195;  654.009
298.722;   92.093;   -8.198;  761.933
299.321;   90.218;   -8.817;  708.597
299.919;   87.533;   -7.716;  751.918
300.518;   83.833;  -10.745;  689.338
301.116;   85.070;   -9.647;  691.381
301.715;   86.396;  -10.828;  730.222
302.313;   84.419;   -6.087;  704.943
302.911;   80.578;   -6.824;  733.830
303.509;   86.203;   -8.807;  925.627
304.108;   85.108;   -8.198;  760.383
304.706;   83.543;   -6.218;  801.664
305.304;   78.780;   -7.185;  796.707
305.902;   84.339;   -8.568;  784.484
306.500;   80.423;   -7.737;  728.200
307.098;   77.669;   -6.026;  746.560
307.696;   75.749;   -7.176;  780.432
308.294;   76.486;   -8.656;  731.359
308.892;   79.111;   -6.838;  759.769
309.490;   75.150;   -2.596;  712.161
310.088;   72.502;   -4.485;  788.444
310.686;   77.374;   -3.907;  821.749
311.284;   73.740;   -2.806;  766.040
311.882;   71.494;   -2.845;  731.225
312.480;   67.304;   -3.274;  697.167
313.078;   70.358;   -3.645;  808.331
313.675;   71.576;   -4.997;  691.600
314.273;   65.919;   -0.894;  797.837
314.871;   65.335;   -2.854;  589.829
315.468;   63.956;   -3.644;  652.090
316.066;   67.696;   -3.947;  694.427
316.664;   59.489;   -1.824;  656.351
317.261;   64.267;    1.565;  910.128
317.859;   60.742;   -3.955;  768.735
318.456;   62.003;   -2.886;  830.096
319.054;   57.626;   -0.995;  787.828
319.651;   56.239;   -1.765;  759.928
320.249;   55.638;   -3.685;  810.188
320.846;   54.795;   -3.736;  714.286
321.443;   52.740;   -2.065;  832.135
322.041;   49.235;   -5.635;  812.315
322.638;   47.630;   -5.985;  701.456
323.235;   50.049;   -6.677;  665.683
323.833;   47.186;   -3.497;  740.354
324.430;   43.177;   -6.756;  615.900
325.027;   44.358;   -7.647;  876.855
325.624;   45.453;   -7.598;  644.532
326.221;   41.893;   -5.848;  689.717
326.818;   40.908;   -5.777;  818.332
327.415;   43.961;   -8.769;  748.828
328.012;   44.466;   -6.299;  690.585
328.609;   42.304;   -6.639;  731.389
329.206;   39.798;   -6.358;  778.621
329.803;   39.240;   -8.698;  737.841
330.400;   41.537;   -8.379;  704.260
330.997;   41.861;   -6.178;  817.147
331.594;   39.594;   -5.646;  788.185
332.191;   44.227;   -6.928;  728.722
332.787;   47.335;   -6.057;  844.463
333.384;   43.476;   -6.445;  763.093
333.981;   40.809;   -8.002;  815.687
334.578;   43.439;   -8.443;  708.378
335.174;   46.153;   -6.053;  731.469
335.771;   46.137;   -5.791;  836.456
336.367;   41.948;   -6.570;  710.631
336.964;   45.449;   -6.741;  793.266
337.561;   46.735;   -5.710;  731.112
338.157;   42.858;   -3.928;  911.916
338.754;   37.102;   -5.577;  796.589
339.350;   37.321;   -9.667;  722.493
339.946;   42.255;   -5.269;  773.135
340.543;   32.427;   -4.485;  846.136
341.139;   26.522;   -7.584;  720.836
341.735;   24.742;   -8.553;  772.593
342.332;   25.119;   -4.984;  691.472
342.928;   26.485;   -3.475;  795.394
343.524;   19.613;   -6.653;  761.684
344.120;   16.564;   -7.173;  738.562
344.716;   21.012;   -4.385;  723.717
345.313;   17.760;   -3.565;  795.342
345.909;   13.193;   -7.495;  627.336
346.505;   15.670;   -8.276;  740.247
347.101;   16.909;   -5.697;  827.864
347.697;   16.833;   -4.767;  785.398
348.293;   10.935;   -7.226;  627.244
348.889;   12.104;   -7.547;  745.914
349.485;   13.163;   -9.147;  688.205
350.081;   12.727;   -6.568;  772.592
350.676;    8.183;   -6.516;  691.606
351.272;   12.641;   -7.378;  809.530
351.868;   12.956;   -6.759;  780.497
352.464;   10.752;   -4.798;  723.932
353.059;    5.851;   -7.977;  646.017
353.655;   10.062;   -8.769;  777.063
354.251;   10.696;   -5.920;  759.845
354.846;    5.813;   -7.647;  740.646
355.442;    2.591;   -6.956;  753.071
356.038;    5.854;   -9.928;  751.708
356.633;    5.920;   -7.698;  728.594
357.229;    3.831;   -6.307;  724.757
357.824;    2.153;   -7.647;  703.600
358.420;    1.809;  -10.047;  679.726
359.015;    2.492;   -7.458;  695.357
359.610;    3.126;   -5.748;  763.920
360.206;   -3.471;   -9.346;  603.240
360.801;   -0.263;  -11.268;  646.503
361.396;    3.093;   -8.789;  725.975
361.992;   -2.058;   -6.347;  668.220
362.587;   -5.148;   -6.476;  670.160
363.182;   -3.132;   -9.457;  689.631
363.777;   -1.007;   -7.147;  738.242
364.372;   -1.386;   -5.507;  737.314
364.967;   -5.786;   -6.386;  680.744
365.563;   -0.974;   -7.858;  815.567
366.158;   -3.817;   -8.517;  685.161
366.753;   -2.505;   -8.728;  649.263
367.348;   -4.833;   -7.677;  746.056
367.942;   -4.974;  -10.387;  697.298
368.537;   -4.196;   -7.187;  754.245
369.132;   -5.175;   -8.587;  703.428
369.727;   -9.376;   -8.606;  638.079
370.322;   -8.235;  -10.426;  580.186
370.917;   -7.423;   -5.776;  710.646
371.511;   -5.073;   -6.007;  861.834
372.106;   -8.434;   -6.686;  776.964
372.701;  -11.713;   -9.335;  585.988
373.296;   -5.480;   -6.777;  863.135
373.890;  -10.806;   -7.546;  647.840
374.485;  -13.320;   -8.755;  691.199
375.079;   -8.232;   -9.797;  738.685
375.674;   -6.405;   -6.327;  812.970
376.268;  -11.464;   -9.046;  691.759
376.863;  -18.023;   -7.993;  580.327
377.457;  -10.491;   -9.206;  662.490
378.052;  -11.563;   -5.345;  764.884
378.646;  -13.097;   -5.605;  741.167
379.240;  -13.613;   -6.825;  721.176
379.835;  -13.292;  -10.476;  636.978
380.429;  -14.012;   -8.676;  562.557
381.023;  -14.254;   -4.945;  779.205
381.617;  -16.907;   -8.094;  680.106
382.212;  -13.360;  -10.646;  685.303
382.806;  -11.285;   -8.136;  760.690
383.400;  -15.537;   -7.855;  672.281
383.994;  -17.201;   -8.125;  664.870
384.588;  -12.459;   -7.637;  697.701
385.182;  -10.895;   -7.458;  726.624
385.776;  -12.858;   -6.277;  706.875
386.370;  -16.388;   -7.485;  681.968
386.964;  -15.685;   -9.416;  684.155
387.558;  -12.590;   -8.518;  598.360
388.152;  -16.473;   -7.096;  681.959
388.745;  -14.624;   -7.656;  814.707
389.339;  -12.449;   -8.927;  747.642
389.933;  -10.659;   -9.538;  695.370
390.527;  -12.800;   -5.857;  859.029
391.120;  -19.386;   -9.455;  595.318
391.714;  -16.034;   -9.746;  711.633
392.308;  -12.272;   -7.857;  780.253
392.901;  -16.460;   -9.106;  642.460
393.495;  -18.105;  -10.365;  595.414
394.089;  -16.134;   -9.696;  760.452
394.682;  -16.317;   -7.016;  697.188
395.275;  -16.420;   -8.466;  719.927
395.869;  -18.242;   -8.985;  667.314
396.462;  -17.088;  -11.496;  616.609
397.056;  -11.536;   -7.838;  776.621
397.649;  -16.889;   -6.895;  731.575
398.242;  -15.698;   -5.017;  712.645
398.836;  -13.251;   -8.787;  766.408
399.429;  -13.781;   -8.967;  631.041
400.022;  -18.061;   -8.815;  665.902
400.615;  -15.601;   -6.276;  805.609
401.208;  -13.507;   -8.407;  691.451
401.802;  -15.231;   -7.296;  699.329
402.395;  -16.876;   -7.585;  683.502
402.988;  -18.384;   -8.015;  696.627
403.581;  -14.455;   -9.577;  646.878
404.174;  -11.950;   -7.588;  686.568
404.767;  -14.966;   -7.906;  638.583
405.360;  -17.468;   -7.875;  621.445
405.953;  -10.993;   -8.127;  759.034
406.545;   -9.590;   -7.198;  725.342
407.138;  -15.331;   -8.916;  618.350
407.731;  -14.367;   -9.767;  613.303
408.324;   -9.051;  -10.659;  660.554
408.917;  -10.716;   -8.068;  681.864
409.509;  -12.582;   -9.837;  740.396
410.102;  -15.257;   -8.146;  643.948
410.695;   -8.651;   -7.969;  665.758
411.287;   -8.372;   -8.579;  599.821
411.880;  -10.079;   -6.968;  585.421
412.472;  -13.499;   -9.487;  613.092
413.065;   -9.895;  -10.338;  629.408
413.657;   -7.493;   -9.169;  576.678
414.250;   -8.057;  -10.119;  646.681
414.842;  -10.351;   -9.938;  676.353
415.434;   -7.428;  -10.409;  570.463
416.027;   -2.314;   -9.591;  652.196
416.619;   -4.591;   -7.379;  713.400
417.211;   -6.666;   -9.159;  599.352
417.804;   -1.848;   -9.191;  628.499
418.396;   -5.266;   -8.159;  607.643
418.988;   -3.568;   -6.960;  659.238
419.580;   -7.874;  -11.389;  568.276
420.172;   -5.391;  -13.460;  536.196
420.764;    0.640;  -10.701;  672.482
421.356;   -1.457;   -8.961;  636.898
421.948;   -2.553;   -9.770;  677.661
422.540;    3.143;   -8.832;  680.027
423.132;    2.465;   -8.153;  600.641
423.724;   -2.010;   -8.481;  561.267
424.316;    1.128;   -9.261;  621.345
424.908;    5.456;   -9.643;  591.517
425.500;    5.739;   -8.663;  647.978
426.092;    6.201;   -8.503;  648.268
426.683;    5.069;  -10.522;  684.836
427.275;    7.823;  -11.734;  641.471
427.867;    9.529;  -10.264;  668.948
428.458;   10.224;   -7.644;  732.344
429.050;    8.681;   -7.853;  680.749
429.642;   10.532;   -8.904;  743.124
430.233;   11.367;  -10.795;  569.356
430.825;   12.021;   -7.665;  724.809
431.416;    9.730;   -8.843;  698.241
432.008;   13.963;   -9.885;  651.723
432.599;   15.671;   -9.966;  656.073
433.190;   11.141;   -9.164;  637.670
433.782;   10.576;   -8.584;  590.395
434.373;   19.243;   -8.296;  884.765
434.964;   18.050;   -9.896;  602.920
435.556;   14.421;   -8.255;  634.537
436.147;   17.969;   -8.075;  758.490
436.738;   16.526;   -9.716;  701.099
437.329;   23.411;   -7.318;  721.723
437.920;   16.443;   -6.694;  666.688
438.511;   15.600;   -9.644;  564.526
439.103;   23.206;   -9.427;  623.998
439.694;   24.769;  -10.748;  681.583
440.285;   26.558;   -7.997;  764.432
440.876;   23.493;  -10.046;  845.738
441.466;   22.907;  -13.467;  575.162
442.057;   29.464;   -9.329;  665.814
442.648;   27.967;   -7.707;  746.255
443.239;   24.714;   -9.017;  620.477
443.830;   30.834;  -10.279;  704.958
444.421;   33.241;  -12.630;  655.474
445.011;   28.957;   -8.697;  693.619
445.602;   29.246;   -7.787;  743.126
446.193;   31.003;  -13.329;  488.117
446.783;   36.293;   -9.171;  640.397
447.374;   31.372;   -7.457;  692.759
447.964;   32.066;   -9.277;  713.770
448.555;   40.205;   -9.041;  822.742
449.145;   37.863;   -8.969;  662.853
449.736;   38.112;   -6.809;  803.179
450.326;   37.967;   -7.229;  713.626
450.917;   42.392;  -11.391;  675.324
451.507;   42.037;   -9.501;  600.661
452.097;   42.307;   -8.460;  746.267
452.688;   43.603;  -10.080;  742.160
453.278;   43.873;  -12.861;  566.840
453.868;   48.327;   -8.372;  793.550
454.458;   46.280;   -8.131;  651.141
455.048;   46.560;   -8.520;  711.783
455.639;   48.658;  -13.632;  567.096
456.229;   51.213;  -10.143;  710.694
456.819;   53.543;   -9.163;  751.158
457.409;   53.737;   -8.652;  773.993
457.999;   57.376;   -9.933;  737.505
458.589;   57.452;  -10.363;  686.606
459.179;   57.128;  -10.633;  717.658
459.769;   54.874;  -12.442;  627.099
460.358;   60.756;   -9.844;  797.262
460.948;   60.130;   -9.924;  689.503
461.538;   61.471;  -10.484;  660.677
462.128;   58.938;  -10.703;  664.934
462.717;   66.199;  -11.486;  710.326
463.307;   69.712;  -10.767;  705.846
463.897;   65.816;   -8.814;  656.942
464.486;   63.915;   -8.182;  837.128
465.076;   68.566;   -9.985;  733.776
465.666;   73.286;  -10.447;  652.900
466.255;   71.308;   -7.754;  785.651
466.845;   69.536;  -10.884;  666.749
467.434;   73.091;  -12.525;  725.873
468.023;   74.271;  -11.456;  658.357
468.613;   71.187;   -9.173;  713.946
469.202;   75.601;   -9.306;  646.507
469.791;   79.998;   -8.917;  737.811
470.381;   82.612;   -9.657;  742.813
470.970;   82.117;   -9.947;  711.099
471.559;   80.894;   -9.256;  733.291
472.148;   84.962;  -13.397;  675.737
472.738;   87.985;   -9.928;  765.466
473.327;   87.113;  -10.897;  637.529
473.916;   86.306;   -8.526;  737.446
474.505;   90.784;  -11.078;  751.703
475.094;   95.400;   -9.559;  806.570
475.683;   93.892;   -8.838;  797.699
476.272;   94.089;  -10.198;  730.632
476.861;   97.586;  -11.489;  706.754
477.449;  104.514;  -10.721;  728.487
478.038;   98.494;   -9.818;  692.513
478.627;  100.157;   -9.887;  714.852
479.216;  106.834;  -10.030;  769.441
479.805;  109.788;   -9.401;  783.375
480.393;  110.016;   -5.739; 1008.945
480.982;  108.044;   -7.838;  874.501
481.571;  114.821;   -9.111;  858.333
482.159;  116.178;  -10.601;  705.386
482.748;  115.173;   -8.500;  821.385
483.336;  119.950;   -9.241;  858.209
483.925;  120.810;  -10.440;  774.373
484.513;  128.027;  -11.063;  758.962
485.102;  124.457;   -9.540;  810.965
485.690;  134.667;   -6.742; 1011.050
486.278;  135.549;   -8.442;  979.329
486.867;  135.829;  -10.472;  809.662
487.455;  138.957;   -8.811;  898.229
488.043;  139.081;  -10.721;  748.361
488.631;  149.917;  -10.393; 1005.079
489.220;  153.646;  -10.843;  908.626
489.808;  153.223;  -10.572;  741.415
490.396;  161.106;  -10.482;  914.645
490.984;  168.026;  -11.542;  830.161
491.572;  178.655;   -8.463;  940.315
492.160;  184.168;   -8.491;  919.081
492.748;  193.397;   -9.681;  884.341
493.336;  213.829;  -10.493; 1019.693
493.924;  240.471;   -9.354;  958.077
494.512;  272.685;   -9.132; 1066.638
495.100;  311.329;   -9.001; 1103.280
495.687;  363.009;  -11.924; 1206.373
496.275;  432.359;  -11.193; 1150.796
496.863;  532.134;   -9.241; 1281.171
497.451;  647.191;  -11.341; 1386.805
498.038;  748.087;  -11.364; 1556.729
498.626;  863.072;   -8.104; 1741.407
499.214; 1047.050;   -8.842; 2016.609
499.801; 1238.406;  -10.112; 2220.633
500.389; 1442.822;  -11.953; 2312.494
500.976; 1700.699;  -10.023; 2744.849
501.564; 2015.390;   -8.662; 3148.565
502.151; 2393.738;  -10.531; 3515.999
502.738; 2780.044;  -13.853; 3971.274
503.326; 3341.993;  -10.794; 4403.796
503.913; 3923.243;   -8.663; 5161.749
504.500; 4275.573;  -10.172; 5986.420
505.088; 4608.762;  -13.472; 6381.201
505.675; 5334.756;  -10.924; 6925.547
506.262; 6148.479;   -8.551; 7619.060
506.849; 7005.933;  -10.523; 8733.969
507.436; 7723.943;  -10.834; 9790.121
508.023; 7976.750;   -9.093; 9985.472
508.610; 8400.122;  -10.073;10434.618
509.197; 9000.288;   -9.500;11198.435
509.784;10379.046;  -13.242;12391.194
510.371;11192.325;  -10.964;13603.713
510.958;11040.283;   -9.772;14426.586
511.545;12161.263;   -7.842;15243.775
512.132;12438.445;  -12.184;15945.876
512.719;12579.439;   -9.733;16340.369
513.305;14527.212;   -9.172;18011.766
513.892;16179.815;   -9.581;19754.971
514.479;18092.355;  -10.253;20967.805
515.066;20396.152;   -8.183;22299.793
515.652;21818.547;   -9.253;22908.660
516.239;22918.443;   -9.412;23798.875
516.825;25567.932;  -11.153;25567.275
517.412;25522.410;  -10.263;28154.959
517.998;25650.127;   -8.802;28344.111
518.585;25287.400;  -10.401;27134.219
519.171;25241.670;  -12.744;27268.576
519.758;27366.639;  -11.793;28964.129
520.344;29645.943;   -8.912;30664.494
520.930;29334.063;  -10.901;32550.605
521.516;30087.449;  -12.034;35422.895
522.103;31315.023;  -10.473;38280.004
522.689;32985.973;   -8.311;37835.117
523.275;37034.160;  -10.691;37288.613
523.861;38590.527;  -11.193;37281.395
524.447;39336.320;  -11.484;37846.949
525.033;39457.508;   -7.702;38321.949
525.619;39208.320;  -11.241;38579.285
526.205;40415.129;  -12.152;40622.875
526.791;39902.082;  -11.423;42258.836
527.377;36863.406;   -7.981;42966.902
527.963;37405.391;   -9.450;42018.949
528.549;41414.891;  -11.351;42476.828
529.135;43525.086;  -10.202;41854.852
529.721;42622.785;   -8.672;41237.711
530.306;40788.156;   -9.111;41259.445
530.892;42323.375;  -11.252;41506.047
531.478;44942.012;  -10.432;43559.613
532.063;48002.617;  -10.721;47695.563
532.649;49954.977;   -7.450;50808.324
533.235;50305.109;  -11.811;51787.500
533.820;50446.941;   -9.383;52145.035
534.406;50006.547;   -9.400;51133.488
534.991;49131.199;   -8.861;49996.805
535.576;47249.609;  -10.612;48882.852
536.162;45323.027;   -7.322;46942.285
536.747;46686.117;   -9.360;45711.746
537.333;49489.848;  -10.450;48510.180
537.918;51386.762;  -12.610;50439.891
538.503;52630.840;  -12.132;50863.711
539.088;49751.492;  -10.831;50906.922
539.673;46756.934;  -11.220;52621.965
540.259;48528.027;  -11.481;52368.094
540.844;51952.055;  -11.462;50879.109
541.429;53644.676;   -7.869;52077.777
542.014;54384.906;  -11.859;52716.695
542.599;53889.680;  -11.061;52363.281
543.184;53124.664;  -12.300;53187.137
543.769;52513.910;   -9.369;54697.605
544.354;52671.715;  -12.020;53913.914
544.938;49715.551;  -10.350;49680.164
545.523;47132.871;  -10.841;47386.277
546.108;48781.391;   -8.579;49151.949
546.693;51389.961;   -8.818;51384.637
547.278;52397.672;  -11.331;51853.254
547.862;48808.414;  -10.292;51173.750
548.447;44518.547;   -8.349;51691.395
549.031;45657.953;  -10.838;52456.703
549.616;51369.906;  -11.681;52714.516
550.201;54860.516;  -11.140;52414.598
550.785;52811.957;   -8.649;52355.059
551.370;52542.695;  -11.889;54589.453
551.954;52614.598;  -11.239;58267.348
552.538;52378.586;   -8.850;59062.176
553.123;53645.641;  -10.829;58115.285
553.707;53802.668;   -8.887;56556.285
554.291;52471.418;  -10.430;56201.668
554.876;50347.813;   -9.799;55335.762
555.460;51487.832;  -10.018;54155.703
556.044;52700.496;   -7.307;53721.484
556.628;49554.121;  -12.229;53731.016
557.212;46236.863;   -9.820;54312.531
557.796;45730.645;   -9.109;53797.773
558.380;48011.867;   -9.707;56145.984
558.964;46852.531;  -10.980;57277.930
559.548;46986.789;  -12.010;56459.641
560.132;50655.047;   -7.928;54434.543
560.716;52444.102;  -10.247;54800.617
561.300;52030.941;  -11.250;57606.945
561.884;53616.684;  -10.568;58972.445
562.467;51953.930;   -9.727;57327.570
563.051;50593.723;  -11.847;54962.434
563.635;49493.949;  -10.747;52594.473
564.219;46019.547;  -13.108;50610.410
564.802;42625.766;  -11.417;49551.180
565.386;43673.848;  -10.457;48370.953
565.969;45506.352;   -8.959;48178.871
566.553;44801.059;  -10.328;49957.305
567.136;43292.520;  -10.257;50369.594
567.720;43219.977;  -10.186;49492.004
568.303;43645.254;  -10.027;50616.352
568.887;44644.887;  -10.397;50727.148
569.470;42755.457;   -8.185;51698.379
570.053;41492.469;  -11.596;52122.078
570.637;41081.750;  -11.378;52536.438
571.220;40838.656;   -9.138;51186.098
571.803;40036.793;   -7.675;51032.762
572.386;38572.664;   -8.976;49609.887
572.969;36163.855;  -12.477;48285.926
573.552;37174.813;   -9.767;47624.285
574.135;37819.949;   -8.175;45498.641
574.718;34304.563;  -11.096;41970.434
575.301;32339.787;  -11.966;41447.137
575.884;30375.012;  -12.836;40923.836
576.467;34591.418;   -9.116;45267.723
577.050;35422.375;  -10.536;48175.543
577.633;36436.809;  -11.027;47729.328
578.216;37426.293;   -9.946;47579.793
578.799;37446.750;   -9.645;47820.996
579.381;38483.746;   -9.446;48115.551
579.964;40171.586;  -12.217;47333.766
580.547;40992.980;  -10.586;46668.969
581.129;41057.234;   -8.374;44466.141
581.712;38661.898;  -10.434;44164.922
582.294;36638.141;  -10.896;46477.855
582.877;36745.789;   -8.906;48244.254
583.459;37410.133;   -9.994;47437.895
584.042;38153.434;  -10.084;46943.219
584.624;38687.684;  -13.534;46792.227
585.206;36781.539;  -12.716;46557.250
585.789;36951.473;  -11.614;45793.773
586.371;34838.355;  -10.203;43836.391
586.953;31900.557;  -10.314;42972.492
587.536;32398.266;   -9.776;42487.211
588.118;34007.563;   -9.821;42086.414
588.700;35250.438;  -10.073;43389.930
589.282;33735.988;  -12.395;43646.039
589.864;32962.156;  -11.514;43438.109
590.446;33014.383;  -10.803;43151.926
591.028;32355.725;  -11.043;42781.867
591.610;32600.865;  -13.244;42839.098
592.192;32450.645;  -11.095;42820.402
592.774;31000.191;  -10.823;40724.277
593.356;29938.475;  -11.052;39874.789
593.937;31227.885;  -11.664;39980.648
594.519;35065.176;  -10.454;42069.633
595.101;37896.609;  -10.322;42976.031
595.683;37004.070;  -10.042;44084.441
596.264;33217.621;  -14.334;43478.797
596.846;34388.215;  -10.863;43803.672
597.427;33430.492;   -9.901;42986.934
598.009;32001.213;  -10.911;42832.219
598.591;32634.957;  -10.483;42580.086
599.172;34322.359;   -9.663;43061.805
599.753;35277.379;  -10.631;41691.469
600.335;35638.582;   -9.371;40692.520
600.916;33574.824;  -13.992;39982.422
601.498;32999.969;   -8.352;40318.617
602.079;33670.473;   -8.411;40670.609
602.660;33425.070;  -10.841;41450.898
603.241;33039.895;  -12.963;41137.738
603.823;33458.953;  -11.523;38868.797
604.404;33169.570;  -11.881;38182.785
604.985;33962.996;  -11.721;38078.047
605.566;33778.488;   -9.293;38056.633
606.147;32406.744;  -10.940;37020.418
606.728;34207.926;  -11.840;37883.359
607.309;35375.457;  -11.781;38748.273
607.890;35639.055;  -11.262;38850.230
608.471;33685.375;  -10.111;37457.918
609.051;33224.340;   -7.709;36066.457
609.632;30531.428;  -12.409;35991.074
610.213;30833.020;  -10.811;37402.641
610.794;32504.701;  -11.630;38383.363
611.374;36126.277;   -8.030;40562.387
611.955;36012.719;  -10.809;38533.727
612.536;34303.480;  -10.531;36951.789
613.116;34059.828;  -12.820;37197.891
613.697;34997.832;  -11.419;38411.125
614.277;36135.313;   -9.768;38673.938
614.858;33141.172;  -10.251;37075.863
615.438;29812.939;  -11.981;35092.906
616.019;27654.506;   -8.978;33666.301
616.599;30012.352;  -12.219;34189.023
617.179;32145.582;  -14.170;36952.047
617.760;32797.602;   -9.211;39582.574
618.340;32938.016;   -9.018;38943.977
618.920;33368.602;   -9.249;37594.156
619.500;33517.816;  -12.728;37866.938
620.080;33956.879;  -12.939;37869.043
620.660;34911.207;  -11.586;36868.617
621.241;34519.906;  -11.538;36352.309
621.821;33224.980;  -11.398;35459.520
622.401;31905.057;  -10.179;35207.414
622.980;32061.773;  -11.587;35980.422
623.560;33528.898;  -12.888;37351.328
624.140;31696.777;  -13.149;34388.582
624.720;27304.893;   -9.928;32368.764
625.300;26765.670;  -10.869;32638.629
625.880;29534.336;   -8.617;34599.035
626.459;30692.588;  -12.138;36831.738
627.039;33315.551;  -12.267;38299.098
627.619;36624.172;   -7.476;38289.574
628.198;38256.859;  -11.347;37220.695
628.778;35658.340;  -11.678;37632.563
629.357;32743.688;  -12.438;38003.012
629.937;31781.826;   -9.576;38402.039
630.516;31783.924;  -11.096;37868.801
631.096;32875.367;  -11.828;35760.410
631.675;34119.383;  -11.565;35225.219
632.254;34680.422;  -11.845;35130.289
632.834;36162.000;  -11.545;35794.570
633.413;35649.453;  -10.887;35788.922
633.992;35221.031;  -10.175;34532.863
634.571;35714.055;   -9.704;33590.113
635.151;34174.031;  -10.815;34943.863
635.730;32952.504;  -11.617;35352.523
636.309;32823.789;  -10.836;35366.605
636.888;33408.844;   -9.755;36165.637
637.467;33588.699;  -11.684;37515.902
638.046;33811.805;  -11.987;39288.695
638.625;33238.973;  -10.455;38279.699
639.204;32907.621;  -11.234;37741.598
639.782;33798.750;  -12.023;38364.551
640.361;32277.219;  -11.506;36740.621
640.940;29273.760;  -12.316;34950.082
641.519;27112.922;  -11.616;34137.398
642.097;29267.961;   -9.266;35654.258
642.676;33113.039;  -12.936;35637.957
643.255;33755.250;   -9.966;36567.074
643.833;34341.336;   -8.916;37809.434
644.412;32164.732;  -10.936;37337.293
644.990;31531.113;  -12.176;37018.531
645.569;32598.297;  -12.246;36518.469
646.147;35336.852;  -12.107;36186.430
646.726;37875.363;  -12.937;36267.688
647.304;34928.363;  -12.547;36647.625
647.882;33936.598;  -12.597;39286.742
648.461;33237.582;   -9.427;39157.703
649.039;33338.051;   -8.937;35412.883
649.617;34108.613;  -11.067;34744.918
650.195;32483.494;  -10.657;35403.098
650.773;29889.250;  -10.097;35053.797
651.352;29473.658;  -11.887;33756.816
651.930;28591.758;  -13.557;31868.773
652.508;28567.711;  -11.767;33121.551
653.086;31237.328;  -10.777;33564.793
653.663;34029.645;  -12.067;34054.668
654.241;36759.703;  -14.918;35693.309
654.819;36390.102;  -11.788;36422.906
655.397;34321.145;  -11.268;38213.484
655.975;32436.680;  -11.738;39507.625
656.553;30448.641;  -11.018;39498.223
657.130;29177.754;  -12.848;40395.480
657.708;28230.205;  -10.098;39242.020
658.286;29412.629;  -11.678;38920.020
658.863;31858.301;  -11.498;40202.898
659.441;34352.355;  -11.008;39677.938
660.018;36001.551;  -11.048;40413.355
660.596;36931.141;  -12.058;39931.414
661.173;37701.770;  -14.158;39604.531
661.750;37173.949;  -12.298;39700.070
662.328;36782.277;  -10.699;39292.809
662.905;36155.848;  -12.119;38235.648
663.482;32190.039;  -11.829;36212.305
664.060;28490.131;  -11.009;35944.945
664.637;31635.725;  -10.369;35170.785
665.214;34052.145;  -10.459;34197.523
665.791;33142.742;  -12.599;34549.520
666.368;30637.061;  -12.919;35118.578
666.945;29072.441;  -10.699;36019.418
667.522;30170.357;  -11.359;36048.438
668.099;30616.756;  -13.529;36243.914
668.676;29213.158;  -10.229;35958.875
669.253;28798.709;   -9.279;37384.730
669.830;28533.693;  -11.370;36779.629
670.407;28600.480;  -10.950;35231.289
670.984;29705.225;  -12.850;35544.270
671.560;28374.930;   -8.440;35466.867
672.137;29166.516;  -13.520;34280.863
672.714;30532.953;  -13.620;34632.863
673.290;30831.629;  -10.450;35135.422
673.867;29964.541;  -10.960;36114.480
674.443;31000.502;  -13.300;36152.859
675.020;29086.934;  -12.370;35327.238
675.596;28311.623;  -11.250;35795.176
676.173;28940.693;  -11.080;35430.355
676.749;28837.227;  -13.220;33549.516
677.326;29955.066;  -13.000;32210.012
677.902;29657.436;  -12.701;32068.871
678.478;28082.354;  -12.801;32583.891
679.054;29037.166;   -8.601;32088.928
679.631;30224.143;  -12.631;30978.848
680.207;30882.594;   -9.451;33160.887
680.783;30254.906;  -11.701;35570.363
681.359;30808.131;  -12.701;36125.184
681.935;32798.555;  -13.271;35240.922
682.511;34613.852;  -10.791;34429.961
683.087;32588.475;  -10.791;34463.680
683.663;29272.146;   -8.121;34648.898
684.239;27139.059;  -13.261;34546.457
684.815;27818.869;  -10.581;35586.375
685.390;29737.012;   -9.961;35821.895
685.966;29281.514;  -11.182;35085.871
686.542;28460.980;  -13.512;34198.230
687.118;26403.145;  -11.472;32847.707
687.693;25254.189;  -10.152;32794.027
688.269;25678.520;  -14.442;33072.367
688.844;24773.664;  -11.852;33141.664
689.420;23734.293;  -13.942;33965.742
689.995;25008.051;   -9.702;34655.523
690.571;26871.453;  -11.312;33576.742
691.146;27155.041;  -14.332;32657.219
691.722;26863.775;  -11.192;32526.979
692.297;27503.262;  -10.962;33014.617
692.872;28765.592;  -11.082;34012.254
693.448;29564.100;  -14.732;34237.434
694.023;29038.504;  -12.363;34142.672
694.598;27074.811;  -12.393;34132.031
695.173;27585.328;  -11.023;34205.250
695.748;29159.738;  -12.743;32882.488
696.323;28506.807;  -11.103;32864.906
696.898;27705.434;   -8.123;33170.004
697.473;27421.561;  -12.603;32432.984
698.048;27798.213;  -12.553;31649.303
698.623;29083.619;  -12.573;30778.141
699.198;28925.811;  -12.743;31140.119
699.773;28338.848;  -12.843;31764.299
700.348;28748.107;  -16.683;31780.816
700.922;29834.621;  -11.403;32046.375
701.497;31243.836;  -11.253;32603.574
702.072;30475.900;  -10.044;34799.871
702.646;29684.203;  -13.054;35793.172
703.221;30232.311;  -11.414;35201.590
703.795;29794.469;  -10.644;34764.527
704.370;28075.287;  -13.484;34307.367
704.944;27203.582;  -12.144;33509.887
705.519;26586.055;  -12.024;31388.584
706.093;28214.139;  -11.234;31340.104
706.668;29351.281;   -9.874;32630.281
707.242;28341.338;  -12.404;32728.779
707.816;26726.197;  -10.644;32947.238
708.390;26349.020;  -11.174;33277.855
708.965;26247.912;  -10.324;33834.336
709.539;26775.289;  -12.014;33709.273
710.113;27191.500;  -12.295;33044.313
710.687;28724.139;  -10.965;31953.992
711.261;30751.135;  -13.685;30505.949
711.835;29303.611;  -15.335;30262.369
712.409;27993.164;  -13.785;31254.447
712.983;28182.539;  -10.525;32754.986
713.557;26524.547;  -13.175;34018.824
714.131;26397.982;  -13.245;34579.625
714.704;29631.857;  -13.175;33890.262
715.278;31986.604;  -11.545;33531.102
715.852;30343.072;  -10.975;33601.660
716.425;28619.340;  -10.075;33515.117
716.999;28992.809;  -12.185;33185.555
717.573;31373.506;   -9.685;33905.996
718.146;32372.342;  -10.516;35199.293
718.720;31054.738;  -12.106;35060.551
719.293;29381.500;  -12.386;34973.230
719.867;29211.088;  -12.456;36394.449
720.440;28963.289;  -10.686;36663.008
721.013;29160.283;  -12.596;35102.426
721.587;30852.266;  -13.956;33985.266
722.160;32950.781;   -9.806;33524.965
722.733;33532.930;  -11.676;32987.043
723.306;32770.203;  -14.276;33066.301
723.880;30485.176;  -12.126;33399.500
724.453;28163.020;  -10.156;33468.297
725.026;27834.650;  -12.956;33816.637
725.599;28015.758;  -11.676;32797.996
726.172;28368.627;  -12.337;33187.434
726.745;28539.236;  -11.277;35136.613
727.318;28608.854;  -11.927;35751.730
727.891;27896.672;  -13.607;35890.430
728.463;25592.680;  -11.327;34822.090
729.036;25374.865;  -11.917;32895.086
729.609;27005.918;  -12.697;31823.225
730.182;27749.826;  -11.787;31445.283
730.754;27342.332;  -12.957;32373.223
731.327;27123.357;  -11.017;33676.820
731.900;26943.980;  -12.797;33417.000
732.472;26339.947;  -10.677;31978.498
733.045;25761.715;  -12.797;30368.777
733.617;25885.529;  -13.908;30574.215
734.190;24823.414;  -12.258;31280.975
734.762;24759.025;  -13.438;31674.412
735.334;25868.287;  -11.758;31247.291
735.907;28569.934;  -11.158;29876.211
736.479;31959.697;  -11.258;29808.488
737.051;32530.270;  -10.918;30233.547
737.623;31394.498;  -11.038;31469.086
738.195;32414.367;  -12.188;31784.225
738.768;30311.844;  -11.378;32120.523
739.340;24722.480;  -12.598;32094.342
739.912;22848.113;  -11.568;31312.680
740.484;24537.094;   -9.348;31946.238
741.056;27083.289;  -12.628;32984.059
741.628;28860.227;  -13.349;33897.715
742.199;27820.131;  -11.309;33213.016
742.771;28162.801;  -12.699;31369.113
743.343;29305.086;  -11.919;31865.473
743.915;29384.779;  -11.679;32388.631
744.487;28115.318;  -12.249;31079.568
745.058;25801.703;  -11.119;30570.107
745.630;24342.602;   -9.439;29970.127
746.201;23441.924;  -11.949;29186.766
746.773;23506.289;  -12.639;28805.723
747.344;24711.650;  -11.039;29591.223
747.916;26939.557;  -12.549;31412.201
748.487;25997.465;  -12.659;32194.898
749.059;24284.082;  -13.059;32533.719
749.630;23440.504;  -12.080;32158.518
750.201;21830.184;  -13.100;30855.395
750.773;21045.148;  -15.310;28622.555
751.344;20673.318;  -12.240;28405.732
751.915;20658.986;  -11.960;28461.551
752.486;19792.514;  -13.200;27842.850
753.057;18591.297;  -15.230;27845.008
753.628;19735.494;  -13.130;27728.107
754.199;22226.566;  -12.720;27381.086
754.770;22428.398;  -10.680;25882.203
755.341;21134.846;  -11.010;25886.184
755.912;20699.990;  -12.990;26050.861
756.483;20066.543;  -11.110;26798.779
757.054;19539.191;  -12.190;27048.238
757.625;19446.625;  -13.981;26294.838
758.195;19477.229;  -11.041;26142.076
758.766;20455.504;  -11.861;26392.234
759.337;20891.170;  -11.461;26334.594
759.907;20399.068;  -15.001;27579.652
760.478;19272.779;   -9.681;28352.770
761.048;18161.322;  -12.421;27325.088
761.619;19069.195;  -11.761;26460.428
762.189;19622.969;  -12.391;26029.826
762.760;18879.014;  -10.201;26430.145
763.330;19307.404;  -10.811;26670.902
763.900;19905.502;  -10.261;26603.021
764.471;18987.223;  -13.061;25542.740
765.041;17687.756;  -11.051;24358.459
765.611;17498.787;  -11.032;23991.297
766.181;17633.650;  -10.532;24470.236
766.751;17970.164;  -13.502;24845.975
767.321;19138.475;  -11.392;24533.633
767.891;20932.076;  -11.522;24916.492
768.461;22250.416;  -13.672;24776.771
769.031;19836.887;  -14.652;24757.988
769.601;16995.367;  -10.182;24181.088
770.171;15842.992;  -11.752;23670.387
770.741;14976.884;  -12.272;22960.045
771.311;14734.326;  -13.112;22917.523
771.880;15687.536;  -14.122;23562.941
772.450;16384.479;  -11.782;24216.500
773.020;16471.625;  -12.642;24140.398
773.589;15541.938;  -13.043;24414.857
774.159;14987.335;  -11.783;23858.717
774.729;15889.909;  -13.473;22942.135
775.298;16765.158;  -14.523;22324.033
775.867;16409.344;  -12.013;21140.313
776.437;15660.132;  -12.113;20838.092
777.006;15190.483;  -13.543;20599.510
777.576;15773.264;  -12.523;20508.809
778.145;16015.284;  -12.173;20732.947
778.714;15374.715;  -12.153;21062.465
779.283;14680.089;  -11.833;20949.664
779.853;14864.633;  -13.483;20508.623
780.422;15071.792;  -12.933;20649.082
780.991;14617.121;  -13.173;21527.520
781.560;14311.589;  -10.224;22632.658
782.129;14752.797;  -12.684;23048.277
782.698;14844.923;  -11.284;23438.555
783.267;14726.512;  -11.684;23267.734
783.836;14419.690;  -10.974;22415.133
784.404;13971.179;  -13.534;20443.152
784.973;13215.406;  -16.734;19699.150
785.542;12136.125;  -12.594;19763.828
786.111;11771.938;  -11.644;20341.408
786.679;12830.443;  -11.384;20207.967
787.248;13115.795;  -12.014;19516.465
787.817;11996.723;  -12.804;18900.363
788.385;10779.099;  -11.994;17879.121
788.954;11019.246;  -12.564;17658.301
789.522;11952.711;  -12.225;17788.879
790.090;11997.470;  -13.775;18118.277
790.659;11822.998;  -12.485;18338.736
791.227;12457.569;  -12.295;18508.615
791.795;13069.452;  -13.415;17898.254
792.364;13562.793;  -12.995;17295.133
792.932;13376.172;   -8.365;16822.051
793.500;12339.497;  -11.925;17040.148
794.068;12467.082;  -13.245;17179.787
794.636;13246.936;  -13.815;16664.246
795.204;13275.885;  -13.375;16524.545
795.772;13045.677;  -12.125;17274.564
796.340;12236.131;  -13.855;17891.002
796.908;10624.521;  -13.456;17648.561
797.476; 9778.910;  -13.116;17064.080
798.044;10023.037;  -13.226;16672.777
798.612;10339.954;  -11.236;17023.996
799.180;10222.009;  -10.476;16561.615
799.747; 9883.651;  -11.746;15962.773
800.315; 9539.277;  -12.366;15296.992
800.883; 8993.393;  -14.616;14801.771
801.450; 9087.897;  -11.996;14534.430
802.018; 9922.530;  -11.206;14173.248
802.585;10325.329;  -12.466;14029.547
803.153; 9777.385;  -12.846;13836.846
803.720; 9151.034;  -12.136;13567.324
804.287; 9314.200;  -10.966;13360.622
804.855; 9471.169;   -9.797;13681.981
805.422; 8698.917;  -13.037;13536.560
805.989; 7982.080;  -12.697;13355.958
806.556; 8150.042;  -11.737;13747.896
807.124; 8826.131;  -11.997;13987.376
807.691; 8612.431;  -13.997;14038.674
808.258; 8054.948;  -10.927;14120.152
808.825; 8332.383;  -13.727;13860.111
809.392; 8412.820;  -11.847;13268.790
809.959; 8394.090;  -14.217;12680.389
810.526; 8354.036;   -8.277;12427.308
811.093; 8486.751;   -9.647;12030.105
811.659; 8510.263;  -10.987;11653.664
812.226; 7903.149;  -13.447;11637.183
812.793; 7403.041;  -14.418;11611.521
813.360; 7565.539;  -13.908;11885.181
813.926; 8074.700;  -12.918;12770.539
814.493; 8292.282;  -14.888;12677.638
815.060; 7828.196;  -12.758;11974.336
815.626; 7520.904;  -13.478;11594.715
816.193; 7467.537;  -13.898;11579.474
816.759; 7594.043;  -13.588;11666.972
817.325; 7629.449;  -12.018;11325.530
817.892; 7291.671;  -14.068;11105.369
818.458; 7310.323;  -13.458;10843.928
819.024; 7170.331;  -11.968;10714.406
819.591; 6937.341;  -11.028;10469.165
820.157; 7017.502;  -12.088;10235.523
820.723; 7114.135;  -12.599;10847.563
821.289; 6824.364;  -10.419;11040.980
821.855; 6622.903;  -10.939;10357.100
822.421; 6597.612;  -12.539; 9978.918
822.987; 6501.759;  -13.259; 9754.177
823.553; 6272.041;  -15.369;10065.755
824.119; 6141.634;  -10.779;10036.294
824.685; 6129.083;   -9.999;10029.192
825.251; 5987.006;  -11.819;10199.230
825.816; 5931.623;  -13.369; 9820.189
826.382; 5789.398;  -12.679; 9297.248
826.948; 5334.189;  -11.199; 9381.347
827.513; 5144.031;  -11.179; 9450.726
828.079; 5246.856;  -13.489; 9472.444
828.645; 5364.183;  -12.500; 9292.643
829.210; 5371.609;  -15.120; 9065.341
829.776; 5305.281;  -12.590; 9132.620
830.341; 5401.591;  -11.540; 9092.878
830.906; 5768.971;  -12.400; 9078.557
831.472; 5752.400;  -12.720; 8534.535
832.037; 5034.146;  -11.490; 8677.874
832.602; 4407.980;  -14.380; 8628.692
833.167; 4170.108;  -12.780; 8879.031
833.733; 4373.813;  -11.100; 9189.790
834.298; 4687.667;  -12.080; 9052.608
834.863; 4506.425;  -13.910; 8895.087
835.428; 4220.215;  -13.470; 8824.266
835.993; 4061.870;  -11.760; 8845.385
836.558; 4240.809;  -12.731; 8888.563
837.123; 4398.856;  -12.431; 8966.582
837.688; 4246.112;  -11.241; 8617.860
838.253; 4075.160;  -13.681; 8590.699
838.817; 4194.005;  -12.531; 8443.797
839.382; 4327.472;  -12.671; 8799.356
839.947; 4382.958;  -11.541; 8810.595
840.511; 4495.190;  -12.021; 8796.394
841.076; 4555.381;  -13.071; 8347.231
841.641; 4741.336;  -11.411; 8224.330
842.205; 4941.301;  -13.671; 8223.349
842.770; 4822.637;  -11.291; 8622.107
843.334; 4556.237;  -12.951; 8410.386
843.898; 4325.758;  -11.221; 8337.465
844.463; 4375.495;  -11.322; 8506.283
845.027; 4354.778;  -11.412; 8280.962
845.591; 4111.783;  -11.512; 8231.141
846.156; 3974.132;  -14.042; 7969.179
846.720; 4014.881;  -12.152; 7768.278
847.284; 3845.729;  -10.922; 7630.957
847.848; 3675.360;  -10.962; 7472.395
848.412; 3479.719;  -14.612; 7437.394
848.976; 3488.183;  -11.492; 7674.592
849.540; 3769.190;   -9.172; 7836.011
850.104; 3960.993;  -11.232; 7913.669
850.668; 3874.722;  -15.182; 7694.508
851.232; 3734.288;  -15.332; 7756.887
851.796; 3662.541;  -13.703; 7926.545
852.359; 3714.374;  -11.113; 7827.844
852.923; 3801.859;  -11.843; 7641.163
853.487; 3777.088;  -11.173; 7342.501
854.050; 3675.734;  -13.443; 7042.820
854.614; 3641.527;  -13.823; 7151.338
855.177; 3565.906;  -16.393; 7105.077
855.741; 3507.078;  -11.693; 6989.675
856.304; 3469.900;  -10.843; 6596.634
856.868; 3357.905;  -13.783; 6356.272
857.431; 3137.816;  -11.953; 6468.571
857.995; 2899.896;  -13.683; 6373.210
858.558; 2867.585;  -11.433; 6324.448
859.121; 2967.490;  -12.493; 6408.327
859.684; 2898.012;  -12.384; 6347.886
860.247; 2592.344;  -14.774; 6321.264
860.810; 2353.402;  -13.154; 6301.903
861.374; 2368.355;  -11.264; 6607.881
861.937; 2445.411;  -15.424; 6408.200
862.500; 2436.976;  -12.854; 6572.639
863.062; 2408.318;  -12.344; 6387.297
863.625; 2403.101;  -13.314; 6190.836
864.188; 2479.611;  -14.724; 5807.254
864.751; 2652.750;  -13.464; 5682.413
865.314; 2976.993;  -11.684; 5547.492
865.876; 3190.839;  -11.104; 5500.150
866.439; 3152.352;  -12.344; 5415.909
867.002; 2977.348;  -13.494; 5501.567
867.564; 2729.861;  -10.935; 5413.946
868.127; 2558.567;  -12.665; 5160.325
868.689; 2524.051;  -14.515; 5133.183
869.252; 2570.930;  -13.425; 5252.382
869.814; 2723.465;  -11.595; 5297.141
870.377; 2820.627;  -12.175; 5390.919
870.939; 2713.106;  -10.265; 5599.898
871.501; 2582.941;  -12.375; 5248.336
872.063; 2502.610;  -14.355; 4854.235
872.626; 2425.621;  -14.435; 4817.074
873.188; 2333.789;  -12.415; 4987.732
873.750; 2351.054;  -14.555; 4868.651
874.312; 2286.730;  -11.185; 4779.330
874.874; 2113.361;  -12.715; 4866.348
875.436; 2036.034;  -13.196; 4718.887
875.998; 2032.619;  -11.426; 4660.005
876.560; 1956.893;   -9.786; 4462.964
877.122; 1897.068;  -12.796; 4145.042
877.683; 1870.304;  -13.226; 4056.481
878.245; 1848.024;  -12.036; 3950.740
878.807; 1843.490;  -11.536; 4058.958
879.369; 1837.983;  -10.806; 3954.677
879.930; 1746.931;  -13.946; 3941.495
880.492; 1608.452;  -11.876; 4067.014
881.053; 1572.648;  -13.216; 3859.633
881.615; 1627.232;  -12.226; 3776.071
882.176; 1658.035;  -12.946; 3734.750
882.738; 1605.280;  -10.736; 3678.489
883.299; 1540.216;  -12.057; 3405.407
883.860; 1509.540;  -12.677; 3351.106
884.422; 1472.851;  -14.097; 3394.044
884.983; 1375.825;  -13.667; 3166.443
885.544; 1237.070;  -10.717; 3189.802
886.105; 1128.691;  -14.357; 3160.360
886.666; 1101.500;  -14.287; 3093.059
887.227; 1100.847;  -14.297; 2941.957
887.788; 1086.337;  -13.137; 2974.836
888.349; 1002.800;  -14.637; 2721.214
888.910;  922.846;  -12.247; 2696.493
889.471;  915.194;  -10.577; 2560.172
890.032;  907.339;  -12.937; 2558.190
890.593;  858.319;  -12.487; 2567.669
891.153;  788.648;  -11.898; 2460.307
891.714;  775.973;  -14.278; 2372.046
892.275;  779.434;  -13.308; 2309.505
892.835;  724.439;  -12.058; 2382.543
893.396;  650.240;  -15.268; 2295.502
893.956;  597.328;  -13.278; 2162.420
894.517;  565.990;  -11.968; 2125.439
895.077;  553.836;  -12.798; 2086.978
895.638;  532.414;  -11.908; 2126.316
896.198;  504.791;  -13.288; 1838.275
896.758;  481.065;  -12.198; 1892.813
897.319;  453.117;  -13.048; 1792.232
897.879;  416.174;  -13.718; 1762.751
898.439;  381.045;  -14.138; 1661.149
898.999;  371.100;  -13.659; 1781.468
899.559;  359.574;  -14.699; 1703.347
900.119;  337.795;  -14.339; 1537.525
900.679;  314.215;  -11.789; 1638.384
901.239;  293.299;  -13.629; 1527.902
901.799;  276.967;  -13.679; 1456.441
902.359;  264.127;  -13.679; 1357.140
902.919;  254.555;  -14.159; 1331.118
903.479;  246.374;  -13.419; 1317.257
904.038;  233.912;  -14.899; 1262.595
904.598;  221.474;  -14.339; 1152.034
905.158;  215.780;  -13.959; 1240.893
905.717;  212.146;  -12.749; 1233.691
906.277;  204.779;  -11.889; 1217.330
906.836;  197.172;  -12.870; 1222.408
907.396;  195.302;  -11.790; 1193.047
907.955;  193.040;  -13.750; 1182.526
908.515;  186.469;  -14.760; 1099.364
909.074;  179.389;  -12.540; 1092.863
909.633;  173.239;  -12.120; 1069.121
910.192;  171.947;  -12.550; 1196.460
910.752;  169.583;  -12.760; 1029.960
911.311;  166.878;  -14.750; 1009.780
911.870;  163.022;  -13.860;  971.460
912.429;  161.460;  -13.480; 1094.080
912.988;  158.051;  -12.370; 1081.060
913.547;  151.980;  -14.670;  940.380
914.106;  150.349;  -12.800;  999.420
914.665;  148.479;  -11.370;  984.020
915.224;  145.378;  -11.430; 1035.760
915.782;  145.387;  -12.260;  922.560
916.341;  146.435;  -12.540; 1049.840
916.900;  144.520;  -12.540;  925.260
917.458;  142.669;  -13.480;  884.220
918.017;  141.902;  -12.470;  942.600
918.576;  140.875;  -13.450;  904.440
919.134;  139.424;  -12.890;  837.980
919.693;  137.887;  -15.480;  893.060
920.251;  135.002;  -14.420;  876.500
920.809;  135.376;  -12.170;  839.580
921.368;  135.307;  -13.650;  885.360
921.926;  134.511;  -12.750;  842.940
922.484;  135.188;  -14.150;  903.360
923.042;  136.199;  -15.100;  880.340
923.601;  139.512;  -10.990;  998.680
924.159;  138.502;  -12.470;  935.560
924.717;  137.372;  -15.640;  841.080
925.275;  139.548;  -12.380;  903.240
925.833;  138.889;  -12.710;  779.320
926.391;  140.790;  -11.200;  938.380
926.949;  139.281;  -16.000;  857.680
927.506;  142.295;  -12.260;  903.500
928.064;  142.795;  -11.300;  877.580
928.622;  142.325;  -13.750;  880.100
929.180;  142.227;  -15.290;  814.180
929.737;  142.105;  -14.500;  808.540
930.295;  143.738;  -10.630;  928.480
930.853;  145.334;  -14.590;  849.100
931.410;  146.780;  -14.450;  821.120
931.968;  150.880;  -14.390;  940.660
932.525;  151.694;  -13.050;  909.380
933.082;  149.791;  -15.620;  811.440
933.640;  151.861;  -15.650;  925.900
934.197;  155.206;  -13.610;  886.360
934.754;  159.625;  -13.320;  897.780
935.312;  162.159;  -13.370;  863.340
935.869;  165.010;  -12.780; 1012.980
936.426;  164.141;  -14.480;  872.800
936.983;  165.608;  -13.180;  889.020
937.540;  166.017;  -15.710;  838.280
938.097;  167.532;  -14.980;  940.120
938.654;  169.601;  -13.060;  898.860
939.211;  170.822;  -12.760;  952.480
939.768;  168.985;  -16.230;  915.420
940.324;  169.836;  -10.940;  904.200
940.881;  169.047;  -12.570;  878.500
941.438;  168.143;  -13.650; 1021.200
941.995;  167.309;  -13.300;  992.560
942.551;  169.456;  -15.800;  875.620
943.108;  168.696;  -14.180;  937.920
943.664;  168.200;  -13.890;  869.340
944.221;  172.359;  -12.640; 1088.140
944.777;  170.037;  -14.700;  869.680
945.334;  168.770;  -13.010;  884.840
945.890;  171.798;  -13.480;  946.480
946.446;  170.137;  -14.920;  947.020
947.003;  168.245;  -13.860;  964.940
947.559;  169.007;  -12.000; 1063.040
948.115;  168.665;  -10.510; 1026.540
948.671;  167.655;  -12.760;  967.300
949.227;  164.296;  -15.390;  859.560
949.783;  159.956;  -15.570;  858.900
950.339;  159.926;  -12.800;  991.000
950.895;  157.898;  -13.780; 1023.840
951.451;  157.398;  -13.810;  925.280
952.007;  158.654;  -12.390;  998.540
952.563;  159.324;  -11.980;  937.780
953.118;  156.798;  -14.070;  904.940
953.674;  157.299;  -14.140;  935.780
954.230;  162.552;  -12.680;  949.640
954.785;  165.470;  -12.770;  936.640
955.341;  161.866;  -11.450;  998.160
955.897;  154.050;  -15.350;  834.660
956.452;  150.932;  -14.200;  953.840
957.008;  146.858;  -10.820; 1083.640
957.563;  143.287;  -13.200; 1009.540
958.118;  143.006;  -14.460;  877.700
958.674;  145.161;  -13.840;  946.780
959.229;  143.806;  -10.670; 1013.980
959.784;  142.554;  -17.040;  832.400
960.339;  146.149;  -12.970; 1001.280
960.894;  148.075;  -12.700;  963.760
961.449;  152.360;  -13.790;  859.960
962.004;  157.668;  -11.760; 1212.840
962.559;  155.936;  -14.840;  860.140
963.114;  151.403;  -14.530;  742.480
963.669;  149.675;  -12.780;  915.500
964.224;  144.667;  -14.330;  874.340
964.779;  139.799;  -14.380;  828.420
965.334;  136.153;  -12.460; 1017.860
965.888;  132.608;  -13.490;  875.360
966.443;  130.817;  -14.140;  972.380
966.998;  127.707;  -16.240;  819.460
967.552;  128.020;  -12.730;  908.380
968.107;  125.057;  -14.510;  868.300
968.661;  124.579;  -11.850;  922.440
969.216;  122.191;  -14.370;  856.280
969.770;  120.878;  -13.010;  917.200
970.324;  119.921;  -12.460;  923.140
970.879;  119.960;  -11.580;  947.180
971.433;  121.814;  -13.130;  952.720
971.987;  120.379;  -12.360;  895.340
972.541;  118.725;  -14.330;  917.100
973.095;  114.806;  -13.310; 1009.460
973.649;  110.683;  -15.830;  809.480
974.203;  111.392;  -15.830;  829.040
974.757;  114.386;  -13.480;  855.220
975.311;  115.614;  -13.720;  872.600
975.865;  116.238;  -15.780;  881.820
976.419;  116.270;  -14.290;  857.400
976.973;  113.091;  -13.210;  849.620
977.526;  110.975;  -12.300;  949.920
978.080;  104.998;  -14.840;  796.780
978.634;  104.621;  -13.100;  921.320
979.187;  101.281;  -12.300;  905.400
979.741;  100.081;  -12.020; 1018.380
980.294;   97.375;  -14.590;  789.160
980.848;   96.059;  -14.390;  717.220
981.401;   96.286;  -14.280;  816.540
981.955;   95.202;  -11.920;  844.300
982.508;   92.109;  -15.790;  746.340
983.061;   92.670;  -12.070;  915.260
983.615;   90.267;  -13.260;  798.800
984.168;   87.615;  -15.540;  770.080
984.721;   87.034;  -13.230;  880.760
985.274;   84.853;  -11.820;  867.500
985.827;   83.071;  -13.510;  834.220
986.380;   80.032;  -14.840;  721.340
986.933;   81.375;  -13.970;  864.800
987.486;   81.704;  -12.450;  861.920
988.039;   79.405;  -11.170;  863.100
988.591;   75.829;  -13.070;  893.260
989.144;   72.856;  -15.530;  737.260
989.697;   71.940;  -14.300;  758.740
990.250;   71.367;  -13.310;  858.100
990.802;   67.655;  -14.490;  755.860
991.355;   69.267;  -12.980;  974.880
991.907;   67.428;  -13.715;  864.320
992.460;   65.589;  -14.450;  753.760
993.012;   63.579;  -12.590;  749.540
993.565;   61.744;  -15.180;  711.360
994.117;   63.890;  -11.630;  950.780
994.669;   61.001;  -13.760;  701.320
995.221;   59.045;  -12.710;  791.920
995.774;   58.680;  -14.620;  787.580
996.326;   57.767;  -13.150;  740.220
996.878;   58.705;  -12.880;  838.420
997.430;   56.363;  -14.580;  699.860
997.982;   54.739;  -14.030;  750.140
998.534;   55.847;  -12.190;  739.060
999.086;   54.563;  -12.990;  738.220
999.638;   51.966;  -13.180;  661.380
1000.190;   50.782;  -14.970;  699.320
1000.741;   51.163;  -12.200;  742.700
1001.293;   51.045;  -13.400;  686.020
1001.845;   49.628;  -14.490;  676.640
1002.396;   49.849;  -15.280;  743.400
1002.948;   50.220;  -12.380;  737.400
1003.500;   49.232;  -13.260;  723.780
1004.051;   50.578;  -13.730;  907.580
1004.603;   49.115;  -12.300;  791.820
1005.154;   45.441;  -15.330;  608.980
1005.705;   45.215;  -12.800;  723.960
1006.257;   44.060;  -13.900;  707.220
1006.808;   42.661;  -14.430;  685.460
1007.359;   42.584;  -12.010;  763.240
1007.910;   41.417;  -12.690;  646.640
1008.461;   40.753;  -13.610;  732.940
1009.013;   38.945;  -14.990;  588.340
1009.564;   40.934;  -11.860;  793.520
1010.115;   38.365;  -12.640;  597.040
1010.665;   38.465;  -14.570;  602.160
1011.216;   38.455;  -15.190;  667.920
1011.767;   37.892;  -13.470;  697.920
1012.318;   39.614;  -13.760;  736.980
1012.869;   37.415;  -15.950;  679.000
1013.419;   37.042;  -15.880;  603.120
1013.970;   36.959;  -14.540;  666.640
1014.521;   36.117;  -13.220;  620.620
1015.071;   36.700;  -15.020;  670.380
1015.622;   35.623;  -17.510;  635.460
1016.172;   35.064;  -14.130;  596.820
1016.723;   35.650;  -14.220;  614.380
1017.273;   34.964;  -15.370;  604.160
1017.823;   34.526;  -15.290;  650.340
1018.374;   35.522;  -13.420;  611.760
1018.924;   35.359;  -11.740;  716.880
1019.474;   34.662;  -12.250;  718.880
1020.024;   33.486;  -15.850;  657.580
1020.574;   34.017;  -13.280;  726.160
1021.124;   34.832;  -13.560;  673.580
1021.674;   31.852;  -13.790;  559.120
1022.224;   32.933;  -14.610;  708.940
1022.774;   32.795;  -13.100;  668.820
1023.324;   33.440;  -11.470;  753.520
1023.874;   34.996;  -11.990;  875.760
1024.423;   32.116;  -14.550;  613.700
1024.973;   32.171;  -14.440;  610.760
1025.523;   31.471;  -13.250;  620.960
1026.072;   30.806;  -15.200;  606.420
1026.622;   29.821;  -14.590;  675.740
1027.172;   31.799;  -11.080;  715.660
1027.721;   30.009;  -14.010;  601.220
1028.270;   31.218;  -13.690;  663.400
1028.820;   30.031;  -15.380;  638.080
1029.369;   30.112;  -14.980;  612.700
1029.918;   30.797;  -13.100;  649.840
1030.468;   29.859;  -13.680;  564.780
1031.017;   29.842;  -13.770;  634.800
1031.566;   29.367;  -14.100;  608.900
1032.115;   30.035;  -11.770;  694.500
1032.664;   27.729;  -14.940;  596.480
1033.213;   29.351;  -13.370;  735.420
1033.762;   28.455;  -13.660;  635.620
1034.311;   28.947;  -13.650;  677.220
1034.860;   28.500;  -13.820;  691.000
1035.408;   27.903;  -12.860;  722.720
1035.957;   28.964;  -13.060;  719.540
1036.506;   26.802;  -14.510;  530.800
1037.055;   29.566;  -13.470;  844.320
1037.603;   27.266;  -14.800;  664.000
1038.152;   25.613;  -14.190;  534.760
1038.700;   26.063;  -11.810;  585.740
1039.249;   26.223;  -12.850;  681.220
1039.797;   25.808;  -14.610;  633.360
1040.345;   26.862;  -15.220;  705.420
1040.894;   26.473;  -13.480;  625.300
1041.442;   25.188;  -13.310;  632.200
1041.990;   24.088;  -14.510;  559.160
1042.538;   24.221;  -15.700;  536.180
1043.087;   25.443;  -13.910;  570.860
1043.635;   25.435;  -13.620;  670.500
1044.183;   24.097;  -14.230;  586.400
1044.731;   24.786;  -13.730;  576.000
1045.279;   24.999;  -13.970;  674.920
1045.827;   26.883;  -10.750;  892.400
1046.374;   22.717;  -15.230;  515.420
1046.922;   23.530;  -15.390;  590.580
1047.470;   25.067;  -12.320;  691.300
1048.018;   24.448;  -13.230;  647.960
1048.565;   24.711;  -13.390;  708.600
1049.113;   23.224;  -15.030;  557.000
1049.660;   22.787;  -12.540;  629.660
1050.208;   22.964;  -15.040;  675.640
1050.755;   22.008;  -14.680;  606.580
1051.303;   22.960;  -13.610;  686.820
1051.850;   22.904;  -14.340;  635.120
1052.397;   19.984;  -16.330;  473.960
1052.945;   21.811;  -15.710;  617.760
1053.492;   22.887;  -12.320;  741.840
1054.039;   22.903;  -13.730;  720.180
1054.586;   21.449;  -16.140;  557.240
1055.133;   21.674;  -14.020;  693.140
1055.680;   21.932;  -13.430;  646.620
1056.227;   21.371;  -14.570;  542.780
1056.774;   23.176;  -14.400;  794.980
1057.321;   20.521;  -14.230;  523.260
1057.868;   20.519;  -14.220;  651.320
1058.415;   21.540;  -14.060;  651.980
1058.961;   20.944;  -14.640;  678.940
1059.508;   20.523;  -13.970;  643.820
1060.055;   19.594;  -15.100;  581.780
1060.601;   21.084;  -12.180;  624.300
1061.148;   19.822;  -15.010;  616.820
1061.694;   18.972;  -14.750;  592.580
1062.241;   19.772;  -14.130;  596.320
1062.787;   20.491;  -14.770;  663.140
1063.334;   21.860;  -13.130;  808.560
1063.880;   19.649;  -14.420;  668.360
1064.426;   19.547;  -13.130;  706.820
1064.972;   18.454;  -13.960;  601.340
1065.518;   17.288;  -13.680;  566.640
1066.065;   18.936;  -15.720;  624.460
1066.611;   18.075;  -13.970;  598.800
1067.157;   18.728;  -13.920;  641.860
1067.703;   18.332;  -14.760;  668.480
1068.249;   18.015;  -14.490;  605.220
1068.794;   17.927;  -14.740;  626.880
1069.340;   17.262;  -13.220;  578.960
1069.886;   17.539;  -14.930;  590.700
1070.432;   15.673;  -14.700;  541.720
1070.977;   17.082;  -14.470;  601.080
1071.523;   18.019;  -14.330;  573.060
1072.068;   17.117;  -14.960;  582.000
1072.614;   16.403;  -16.220;  527.760
1073.160;   17.466;  -11.280;  687.040
1073.705;   16.539;  -15.990;  572.520
1074.250;   16.419;  -16.550;  559.900
1074.796;   16.586;  -14.600;  655.160
1075.341;   17.609;  -13.440;  664.100
1075.886;   16.862;  -14.450;  594.240
1076.431;   16.327;  -13.160;  649.880
1076.976;   15.167;  -14.710;  639.220
1077.521;   15.372;  -14.000;  583.080
1078.067;   15.808;  -14.470;  579.400
1078.612;   15.394;  -14.530;  661.620
1079.156;   15.047;  -15.660;  601.540
1079.701;   15.643;  -16.120;  693.260
1080.246;   17.093;  -12.960;  696.300
1080.791;   15.530;  -13.700;  625.020
1081.336;   15.171;  -15.540;  659.320
1081.880;   15.181;  -14.640;  649.680
1082.425;   15.035;  -14.220;  573.480
1082.970;   16.151;  -11.890;  717.040
1083.514;   13.839;  -13.820;  597.000
1084.059;   13.909;  -14.280;  586.720
1084.603;   14.246;  -12.890;  565.840
1085.147;   13.872;  -13.590;  645.220
1085.692;   14.353;  -14.050;  716.800
1086.236;   13.057;  -14.990;  503.140
1086.780;   15.853;  -12.640;  751.440
1087.325;   13.841;  -15.550;  654.620
1087.869;   13.574;  -14.980;  610.700
1088.413;   14.936;  -13.440;  705.040
1088.957;   13.325;  -12.170;  543.400
1089.501;   14.023;  -12.730;  766.640
1090.045;   13.674;  -14.650;  726.480
1090.589;   11.598;  -14.500;  569.920
1091.133;   13.824;  -12.320;  673.340
1091.676;   12.314;  -16.130;  591.940
1092.220;   11.358;  -13.930;  600.920
1092.764;   13.860;  -12.820;  706.960
1093.307;   13.455;  -11.700;  673.780
1093.851;   11.595;  -15.600;  556.540
1094.395;   12.298;  -13.920;  683.140
1094.938;   12.477;  -16.090;  632.520
1095.482;   12.367;  -13.820;  559.800
1096.025;   12.935;  -12.720;  710.880
1096.568;   13.248;  -12.100;  779.280
1097.112;    9.566;  -15.450;  508.180
1097.655;   12.403;  -14.310;  603.000
1098.198;   10.228;  -14.740;  600.180
1098.741;   10.248;  -15.550;  612.860
1099.285;   12.307;  -12.600;  657.300
1099.828;    9.932;  -15.050;  439.400
1100.371;   10.718;  -14.800;  608.160
1100.914;   10.633;  -16.480;  682.660
1101.457;   11.572;  -12.990;  679.900
1101.999;   10.749;  -14.110;  584.680
1102.542;   10.608;  -11.450;  641.440
1103.085;    9.936;  -13.350;  658.500
1103.628;   10.867;  -13.200;  762.060
1104.170;    9.603;  -12.310;  588.280
1104.713;   10.099;  -14.320;  646.700
1105.256;    8.848;  -16.110;  557.440
1105.798;    8.108;  -15.910;  499.980
1106.341;   11.769;  -12.200;  728.900
1106.883;    8.867;  -14.910;  521.340
1107.425;    9.567;  -14.960;  668.180
1107.968;    9.048;  -13.440;  612.380
1108.510;   10.488;  -14.010;  684.960
1109.052;    8.652;  -15.430;  612.620
1109.594;    8.101;  -15.290;  554.440
1110.136;    9.163;  -13.360;  643.220
1110.679;    8.747;  -13.820;  633.080
1111.221;    9.175;  -13.690;  604.460
1111.763;    7.313;  -14.890;  559.220
1112.304;    7.933;  -14.550;  547.140
1112.846;    9.241;  -12.760;  666.240
1113.388;   11.435;  -10.780;  942.180
1113.930;    8.478;  -12.690;  694.200
1114.472;    7.672;  -15.730;  606.540
1115.013;    6.739;  -14.620;  551.280
1115.555;    7.173;  -14.950;  587.100
1116.097;    6.638;  -16.460;  579.480
1116.638;    7.750;  -13.730;  684.600
1117.180;    9.270;  -13.810;  667.740
1117.721;    7.376;  -13.280;  568.580
1118.262;    7.865;  -15.080;  677.960
1118.804;    8.240;  -14.040;  637.340
1119.345;    6.962;  -15.430;  578.400
1119.886;    8.450;  -15.240;  704.040
1120.427;    5.888;  -15.820;  589.020
1120.969;    6.282;  -14.550;  597.920
1121.510;    6.970;  -14.030;  563.060
1122.051;    7.376;  -11.990;  723.580
1122.592;    5.570;  -16.490;  655.420
1123.133;    4.749;  -15.580;  547.940
1123.673;    7.465;  -12.850;  706.480
1124.214;    6.497;  -13.630;  612.460
1124.755;    6.351;  -14.830;  639.460
1125.296;    6.447;  -13.110;  627.320
1125.836;    7.856;  -11.320;  691.500
1126.377;    5.348;  -14.330;  599.660
1126.918;    6.147;  -12.800;  614.980
1127.458;    4.816;  -13.580;  622.220
1127.999;    6.845;  -10.330;  656.980
1128.539;    6.088;  -13.390;  694.240
1129.079;    4.748;  -16.420;  632.720
1129.620;    4.553;  -15.700;  558.100
1130.160;    4.936;  -14.790;  539.480
1130.700;    5.343;  -12.910;  640.840
1131.240;    5.637;  -15.610;  643.700
1131.781;    4.868;  -12.920;  619.680
1132.321;    5.197;  -15.300;  599.120
1132.861;    4.057;  -14.760;  564.200
1133.401;    4.131;  -15.470;  593.940
1133.941;    5.165;  -13.710;  626.280
1134.481;    4.595;  -11.820;  597.580
1135.020;    3.974;  -14.810;  609.160
1135.560;    4.798;  -13.660;  674.940
1136.100;    2.874;  -13.940;  501.160
1136.640;    4.005;  -15.410;  510.480
1137.179;    3.347;  -16.920;  537.960
1137.719;    3.706;  -16.430;  605.400
1138.258;    4.278;  -16.300;  587.360
1138.798;    5.157;  -13.710;  663.780
1139.337;    2.487;  -13.840;  482.840
1139.877;    3.824;  -16.140;  642.360
1140.416;    6.154;  -11.410;  878.060
1140.955;    3.469;  -12.820;  535.380
1141.494;    3.487;  -12.310;  669.280
1142.034;    2.291;  -16.280;  583.520
1142.573;    4.038;  -13.090;  646.280
1143.112;    3.325;  -13.770;  553.480
1143.651;    2.139;  -15.830;  536.480
1144.190;    3.453;  -15.010;  691.640
1144.729;    2.823;  -13.650;  607.420
1145.267;    3.606;  -13.670;  584.900
1145.806;    3.263;  -13.630;  637.040
1146.345;    2.611;  -14.160;  635.020
1146.884;    2.316;  -11.180;  622.500
1147.422;    2.112;  -15.890;  533.060
1147.961;    4.068;  -12.760;  708.460
1148.500;    2.636;  -15.220;  669.720
1149.038;    2.394;  -13.720;  632.500
1149.577;    2.967;  -13.250;  698.640
1150.115;    0.856;  -16.790;  452.280
1150.653;    1.727;  -15.810;  607.340
1151.192;    2.202;  -14.730;  552.920
1151.730;    3.089;  -13.660;  652.560
1152.268;    1.204;  -15.120;  589.520
1152.806;    0.861;  -15.580;  571.180
1153.344;    0.574;  -16.210;  577.640
1153.882;    1.732;  -12.810;  600.060
1154.421;    0.312;  -14.150;  470.620
1154.958;    0.649;  -15.360;  595.240
1155.496;    2.333;  -14.710;  645.280
1156.034;    2.478;  -13.640;  721.880
1156.572;    2.519;  -13.740;  667.060
1157.110;   -0.270;  -16.960;  473.940
1157.647;    1.479;  -11.940;  676.960
1158.185;    1.199;  -14.090;  564.320
1158.723;   -0.371;  -13.610;  509.200
1159.260;    0.826;  -14.760;  701.700
1159.798;    1.610;  -13.700;  658.160
1160.335;    1.173;  -13.820;  631.820

