
Integration time [ms]:   3.882
Averaging Nr. [scans]: 1000
Smoothing Nr. [pixels]: 0
Data measured with spectrometer [name]: 7414430SP
Wave   ;Sample   ;Dark     ;Reference
[nm]   ;[counts] ;[counts] ;[counts] 

288.544;  138.621;    7.153;  793.890
289.143;  142.630;    8.402;  681.602
289.742;  145.217;    7.062;  828.814
290.341;  131.719;    0.191;  789.841
290.940;  122.164;    0.321;  730.702
291.538;  123.056;    3.811;  881.108
292.137;  120.521;   -3.438;  792.581
292.736;  124.523;   -2.809;  975.101
293.335;  121.268;   -5.239;  735.086
293.934;  123.177;   -4.939;  781.677
294.532;  123.325;   -2.199; 1031.958
295.131;  108.744;   -6.831;  834.394
295.730;  108.221;   -6.620;  809.588
296.328;  106.396;   -6.471;  783.442
296.927;  105.398;   -6.571;  779.652
297.525;  107.441;   -7.391;  781.236
298.124;   98.871;   -9.402;  654.009
298.722;  104.303;   -5.781;  761.933
299.321;  101.306;   -6.351;  708.597
299.919;   97.871;   -8.661;  751.918
300.518;   93.656;  -11.922;  689.338
301.116;   96.149;   -6.941;  691.381
301.715;   96.427;   -5.471;  730.222
302.313;   95.998;   -8.361;  704.943
302.911;   91.119;   -9.082;  733.830
303.509;   97.268;   -4.571;  925.627
304.108;   94.404;   -7.111;  760.383
304.706;   93.845;   -7.681;  801.664
305.304;   88.454;   -9.162;  796.707
305.902;   94.172;   -6.761;  784.484
306.500;   89.421;   -6.921;  728.200
307.098;   86.548;   -6.491;  746.560
307.696;   86.032;   -6.941;  780.432
308.294;   86.529;   -6.301;  731.359
308.892;   88.688;   -4.771;  759.769
309.490;   84.830;   -5.141;  712.161
310.088;   83.101;   -2.912;  788.444
310.686;   87.760;   -0.421;  821.749
311.284;   83.513;   -3.461;  766.040
311.882;   81.697;   -6.282;  731.225
312.480;   77.606;   -3.632;  697.167
313.078;   80.558;   -2.112;  808.331
313.675;   80.206;   -1.931;  691.600
314.273;   75.679;   -1.442;  797.837
314.871;   74.997;   -3.002;  589.829
315.468;   73.499;   -2.252;  652.090
316.066;   75.581;   -1.091;  694.427
316.664;   68.910;   -4.512;  656.351
317.261;   73.407;   -0.062;  910.128
317.859;   68.935;   -0.952;  768.735
318.456;   70.174;    0.719;  830.096
319.054;   64.915;   -4.002;  787.828
319.651;   64.388;   -4.972;  759.928
320.249;   64.409;   -1.162;  810.188
320.846;   61.646;   -2.651;  714.286
321.443;   59.760;   -3.832;  832.135
322.041;   56.082;   -4.312;  812.315
322.638;   55.254;   -3.872;  701.456
323.235;   56.633;   -4.361;  665.683
323.833;   53.660;   -4.821;  740.354
324.430;   49.454;   -6.971;  615.900
325.027;   51.344;   -4.361;  876.855
325.624;   50.939;   -5.581;  644.532
326.221;   47.378;   -6.601;  689.717
326.818;   47.326;   -7.301;  818.332
327.415;   50.247;   -6.180;  748.828
328.012;   49.422;   -5.920;  690.585
328.609;   46.433;   -8.390;  731.389
329.206;   45.590;   -6.121;  778.621
329.803;   45.564;   -5.241;  737.841
330.400;   47.042;   -7.420;  704.260
330.997;   47.606;   -5.931;  817.147
331.594;   45.374;   -5.641;  788.185
332.191;   50.649;   -6.451;  728.722
332.787;   54.205;   -4.651;  844.463
333.384;   51.896;   -5.472;  763.093
333.981;   49.606;   -6.303;  815.687
334.578;   52.368;   -5.892;  708.378
335.174;   55.146;   -4.102;  731.469
335.771;   54.439;   -8.053;  836.456
336.367;   51.851;   -7.363;  710.631
336.964;   55.563;   -6.243;  793.266
337.561;   55.000;   -5.653;  731.112
338.157;   50.001;   -7.074;  911.916
338.754;   47.797;   -5.474;  796.589
339.350;   46.143;   -5.624;  722.493
339.946;   48.251;   -5.054;  773.135
340.543;   40.970;   -6.695;  846.136
341.139;   35.844;   -6.215;  720.836
341.735;   35.051;   -5.746;  772.593
342.332;   33.553;   -7.335;  691.472
342.928;   33.213;   -4.835;  795.394
343.524;   27.021;   -4.586;  761.684
344.120;   25.095;   -3.946;  738.562
344.716;   27.556;   -4.835;  723.717
345.313;   24.173;   -5.325;  795.342
345.909;   20.481;   -6.535;  627.336
346.505;   22.394;   -4.725;  740.247
347.101;   22.480;   -4.164;  827.864
347.697;   23.098;   -5.274;  785.398
348.293;   17.529;   -7.145;  627.244
348.889;   18.650;   -4.364;  745.914
349.485;   17.644;   -6.404;  688.205
350.081;   19.001;   -7.534;  772.592
350.676;   13.546;   -6.995;  691.606
351.272;   18.320;   -3.544;  809.530
351.868;   17.985;   -5.324;  780.497
352.464;   15.082;   -7.204;  723.932
353.059;   11.196;   -6.894;  646.017
353.655;   14.952;   -3.754;  777.063
354.251;   16.202;   -6.143;  759.845
354.846;   10.843;   -9.464;  740.646
355.442;    8.907;   -7.555;  753.071
356.038;   10.333;   -5.474;  751.708
356.633;   10.214;   -5.914;  728.594
357.229;    8.467;   -8.944;  724.757
357.824;    6.925;   -6.794;  703.600
358.420;    5.999;   -5.754;  679.726
359.015;    5.372;   -5.664;  695.357
359.610;    7.440;   -8.004;  763.920
360.206;    1.453;   -8.815;  603.240
360.801;    4.379;   -8.834;  646.503
361.396;    6.923;   -6.274;  725.975
361.992;    1.693;   -8.574;  668.220
362.587;   -0.884;   -9.265;  670.160
363.182;    1.511;   -5.484;  689.631
363.777;    3.378;   -5.164;  738.242
364.372;    1.567;   -6.954;  737.314
364.967;   -2.612;   -7.065;  680.744
365.563;    2.984;   -5.684;  815.567
366.158;   -0.069;   -6.484;  685.161
366.753;    0.177;   -8.004;  649.263
367.348;   -0.524;  -10.114;  746.056
367.942;   -0.736;   -7.764;  697.298
368.537;   -2.046;   -4.554;  754.245
369.132;   -2.591;   -7.664;  703.428
369.727;   -6.847;   -8.905;  638.079
370.322;   -5.121;   -4.945;  580.186
370.917;   -5.376;   -7.095;  710.646
371.511;   -1.829;   -6.574;  861.834
372.106;   -5.310;   -6.515;  776.964
372.701;   -8.883;   -8.225;  585.988
373.296;   -3.067;   -4.494;  863.135
373.890;   -7.788;   -7.965;  647.840
374.485;   -9.981;   -9.745;  691.199
375.079;   -5.774;   -5.554;  738.685
375.674;   -4.673;   -4.724;  812.970
376.268;   -8.633;   -8.365;  691.759
376.863;  -14.680;   -8.126;  580.327
377.457;   -8.143;   -6.045;  662.490
378.052;   -9.612;   -6.835;  764.884
378.646;  -11.274;   -9.375;  741.167
379.240;  -11.545;   -6.185;  721.176
379.835;  -10.229;   -6.135;  636.978
380.429;  -11.910;   -8.365;  562.557
381.023;  -12.343;   -7.935;  779.205
381.617;  -15.514;   -8.325;  680.106
382.212;  -11.418;   -7.405;  685.303
382.806;  -10.214;   -4.155;  760.690
383.400;  -14.587;   -8.945;  672.281
383.994;  -15.350;   -8.365;  664.870
384.588;  -11.350;   -7.824;  697.701
385.182;   -9.386;   -7.984;  726.624
385.776;  -11.390;  -10.404;  706.875
386.370;  -14.830;   -7.335;  681.968
386.964;  -13.612;   -7.485;  684.155
387.558;  -12.151;   -8.174;  598.360
388.152;  -15.155;  -10.415;  681.959
388.745;  -13.744;   -9.595;  814.707
389.339;  -11.561;   -6.454;  747.642
389.933;  -11.231;   -5.804;  695.370
390.527;  -12.685;   -6.854;  859.029
391.120;  -18.424;   -7.665;  595.318
391.714;  -15.316;   -7.245;  711.633
392.308;  -11.600;   -4.514;  780.253
392.901;  -15.963;   -7.935;  642.460
393.495;  -17.607;   -8.585;  595.414
394.089;  -15.223;   -5.245;  760.452
394.682;  -16.238;   -6.305;  697.188
395.275;  -16.700;   -9.335;  719.927
395.869;  -18.460;   -7.375;  667.314
396.462;  -15.972;   -7.055;  616.609
397.056;  -11.754;   -5.434;  776.621
397.649;  -16.508;   -9.525;  731.575
398.242;  -13.722;   -7.574;  712.645
398.836;  -13.065;   -5.134;  766.408
399.429;  -15.061;   -6.544;  631.041
400.022;  -18.677;   -9.215;  665.902
400.615;  -15.685;   -8.105;  805.609
401.208;  -13.077;   -7.614;  691.451
401.802;  -15.736;   -8.085;  699.329
402.395;  -17.696;   -9.575;  683.502
402.988;  -18.703;   -9.285;  696.627
403.581;  -14.512;   -7.514;  646.878
404.174;  -12.664;   -6.404;  686.568
404.767;  -15.679;   -8.775;  638.583
405.360;  -18.028;   -7.415;  621.445
405.953;  -12.307;   -5.624;  759.034
406.545;  -12.422;   -6.474;  725.342
407.138;  -16.401;   -8.445;  618.350
407.731;  -15.274;  -10.044;  613.303
408.324;  -10.814;   -8.484;  660.554
408.917;  -11.844;   -7.624;  681.864
409.509;  -13.764;   -8.304;  740.396
410.102;  -16.716;   -8.495;  643.948
410.695;  -10.046;   -7.824;  665.758
411.287;  -11.475;   -7.754;  599.821
411.880;  -12.344;   -9.294;  585.421
412.472;  -14.817;   -8.814;  613.092
413.065;  -12.131;   -6.674;  629.408
413.657;   -9.741;   -9.664;  576.678
414.250;   -9.770;  -10.264;  646.681
414.842;  -10.979;   -8.664;  676.353
415.434;   -9.767;   -8.584;  570.463
416.027;   -5.132;   -9.423;  652.196
416.619;   -8.067;  -10.764;  713.400
417.211;   -8.403;   -7.404;  599.352
417.804;   -3.907;   -7.383;  628.499
418.396;   -8.660;   -8.334;  607.643
418.988;   -6.725;   -9.633;  659.238
419.580;   -8.778;  -10.554;  568.276
420.172;   -6.908;   -8.683;  536.196
420.764;   -2.821;   -9.713;  672.482
421.356;   -4.638;  -11.303;  636.898
421.948;   -5.556;   -8.453;  677.661
422.540;    0.604;   -5.793;  680.027
423.132;   -0.608;   -7.162;  600.641
423.724;   -4.677;   -7.933;  561.267
424.316;   -1.958;   -9.083;  621.345
424.908;    1.417;   -8.392;  591.517
425.500;    1.724;   -8.062;  647.978
426.092;    2.422;   -9.692;  648.268
426.683;    1.376;   -8.223;  684.836
427.275;    4.750;   -8.602;  641.471
427.867;    5.905;   -8.382;  668.948
428.458;    6.820;  -10.472;  732.344
429.050;    4.550;   -9.112;  680.749
429.642;    7.508;   -7.752;  743.124
430.233;    7.838;   -8.832;  569.356
430.825;    8.441;   -8.292;  724.809
431.416;    5.898;   -7.522;  698.241
432.008;    9.648;   -9.262;  651.723
432.599;   10.543;   -6.441;  656.073
433.190;    7.543;   -9.222;  637.670
433.782;    6.296;  -11.832;  590.395
434.373;   14.462;   -7.121;  884.765
434.964;   12.689;   -9.141;  602.920
435.556;   10.105;   -9.332;  634.537
436.147;   12.833;   -8.892;  758.490
436.738;   12.682;   -8.151;  701.099
437.329;   18.602;   -8.281;  721.723
437.920;   11.349;   -9.062;  666.688
438.511;   11.018;  -11.182;  564.526
439.103;   18.680;   -7.461;  623.998
439.694;   20.173;   -8.541;  681.583
440.285;   20.414;   -7.351;  764.432
440.876;   19.333;   -8.201;  845.738
441.466;   18.885;  -10.381;  575.162
442.057;   22.867;   -7.620;  665.814
442.648;   21.944;   -8.461;  746.255
443.239;   19.529;   -8.991;  620.477
443.830;   24.903;   -7.910;  704.958
444.421;   27.105;   -7.340;  655.474
445.011;   23.661;   -8.981;  693.619
445.602;   23.619;   -9.341;  743.126
446.193;   24.821;  -11.390;  488.117
446.783;   29.771;  -11.240;  640.397
447.374;   24.657;   -8.471;  692.759
447.964;   25.672;   -8.471;  713.770
448.555;   33.965;   -6.590;  822.742
449.145;   30.549;   -8.200;  662.853
449.736;   30.535;  -11.040;  803.179
450.326;   32.011;   -9.640;  713.626
450.917;   36.474;   -9.480;  675.324
451.507;   35.121;   -8.020;  600.661
452.097;   35.705;  -10.210;  746.267
452.688;   37.116;   -7.810;  742.160
453.278;   36.991;   -9.360;  566.840
453.868;   40.990;   -8.669;  793.550
454.458;   38.976;  -10.950;  651.141
455.048;   40.195;  -10.200;  711.783
455.639;   40.887;   -9.369;  567.096
456.229;   44.361;   -7.739;  710.694
456.819;   45.823;   -8.939;  751.158
457.409;   47.145;   -7.169;  773.993
457.999;   49.418;   -7.779;  737.505
458.589;   48.306;   -7.039;  686.606
459.179;   49.093;   -9.019;  717.658
459.769;   46.770;   -8.909;  627.099
460.358;   51.880;   -8.659;  797.262
460.948;   51.698;   -8.209;  689.503
461.538;   52.904;   -9.879;  660.677
462.128;   50.859;   -9.379;  664.934
462.717;   58.208;   -9.158;  710.326
463.307;   61.156;   -8.638;  705.846
463.897;   57.064;   -8.869;  656.942
464.486;   56.553;   -7.409;  837.128
465.076;   60.701;   -9.618;  733.776
465.666;   63.994;   -7.578;  652.900
466.255;   61.142;   -9.369;  785.651
466.845;   60.978;  -10.049;  666.749
467.434;   64.384;   -8.168;  725.873
468.023;   64.515;   -9.188;  658.357
468.613;   61.890;   -9.849;  713.946
469.202;   66.671;  -12.958;  646.507
469.791;   71.993;   -9.488;  737.811
470.381;   72.849;   -6.468;  742.813
470.970;   71.744;  -10.248;  711.099
471.559;   72.413;  -11.428;  733.291
472.148;   75.066;   -9.738;  675.737
472.738;   77.657;   -7.877;  765.466
473.327;   78.018;  -11.868;  637.529
473.916;   76.517;   -8.578;  737.446
474.505;   81.275;  -11.137;  751.703
475.094;   84.006;   -9.407;  806.570
475.683;   82.670;   -9.977;  797.699
476.272;   84.298;  -10.807;  730.632
476.861;   87.009;  -11.017;  706.754
477.449;   93.696;  -10.316;  728.487
478.038;   87.677;  -10.187;  692.513
478.627;   89.001;  -12.458;  714.852
479.216;   95.722;  -10.127;  769.441
479.805;   99.020;   -6.256;  783.375
480.393;   98.810;   -8.737; 1008.945
480.982;   96.685;   -9.087;  874.501
481.571;  104.253;   -7.806;  858.333
482.159;  103.759;  -10.596;  705.386
482.748;  103.514;  -11.507;  821.385
483.336;  107.673;   -8.366;  858.209
483.925;  108.546;   -7.497;  774.373
484.513;  115.600;   -8.326;  758.962
485.102;  111.444;  -10.277;  810.965
485.690;  121.403;   -8.256; 1011.050
486.278;  122.243;   -7.146;  979.329
486.867;  122.401;   -7.986;  809.662
487.455;  124.439;   -9.926;  898.229
488.043;  125.931;  -10.026;  748.361
488.631;  135.139;   -7.226; 1005.079
489.220;  138.560;   -8.696;  908.626
489.808;  138.634;  -12.276;  741.415
490.396;  145.258;   -9.386;  914.645
490.984;  150.796;   -8.506;  830.161
491.572;  160.471;   -8.226;  940.315
492.160;  164.877;   -9.836;  919.081
492.748;  175.588;  -10.316;  884.341
493.336;  195.787;   -7.146; 1019.693
493.924;  217.890;   -7.965;  958.077
494.512;  245.533;  -10.316; 1066.638
495.100;  280.336;  -10.186; 1103.280
495.687;  336.905;   -7.805; 1206.373
496.275;  397.404;   -9.686; 1150.796
496.863;  481.026;  -11.566; 1281.171
497.451;  560.278;  -11.406; 1386.805
498.038;  665.710;   -8.235; 1556.729
498.626;  798.040;   -7.485; 1741.407
499.214;  961.133;   -8.646; 2016.609
499.801; 1218.116;   -9.936; 2220.633
500.389; 1442.744;   -8.056; 2312.494
500.976; 1589.480;   -6.166; 2744.849
501.564; 1783.767;   -9.126; 3148.565
502.151; 2079.925;  -12.456; 3515.999
502.738; 2454.198;  -10.056; 3971.274
503.326; 2879.537;  -10.605; 4403.796
503.913; 3297.750;  -10.576; 5161.749
504.500; 3777.180;   -9.056; 5986.420
505.088; 4328.811;  -10.136; 6381.201
505.675; 5023.195;   -9.075; 6925.547
506.262; 5506.622;  -11.346; 7619.060
506.849; 6422.101;   -9.376; 8733.969
507.436; 7220.043;   -7.365; 9790.121
508.023; 7113.042;   -8.686; 9985.472
508.610; 7268.196;   -8.846;10434.618
509.197; 8068.900;   -9.077;11198.435
509.784; 9595.846;  -10.246;12391.194
510.371;10886.266;   -9.825;13603.713
510.958;11948.157;  -10.896;14426.586
511.545;12613.137;   -9.006;15243.775
512.132;12362.760;   -8.765;15945.876
512.719;12891.358;   -8.286;16340.369
513.305;14960.799;   -9.256;18011.766
513.892;16920.412;  -11.106;19754.971
514.479;19916.996;   -8.576;20967.805
515.066;23024.484;   -9.046;22299.793
515.652;23779.713;  -10.676;22908.660
516.239;24261.783;  -10.166;23798.875
516.825;23848.441;  -11.266;25567.275
517.412;22973.990;   -7.446;28154.959
517.998;22403.361;  -10.916;28344.111
518.585;22087.270;   -9.166;27134.219
519.171;21504.629;  -10.135;27268.576
519.758;22513.338;   -8.806;28964.129
520.344;25484.898;   -6.716;30664.494
520.930;28158.326;  -10.166;32550.605
521.516;28189.980;   -9.615;35422.895
522.103;30535.904;   -8.656;38280.004
522.689;31472.041;   -9.646;37835.117
523.275;30697.486;  -10.786;37288.613
523.861;33231.789;   -9.266;37281.395
524.447;34463.488;   -8.285;37846.949
525.033;33468.270;   -9.426;38321.949
525.619;33254.340;   -9.836;38579.285
526.205;35845.555;   -8.136;40622.875
526.791;37281.043;   -9.986;42258.836
527.377;36915.984;   -8.236;42966.902
527.963;36033.234;  -12.117;42018.949
528.549;34241.012;   -8.376;42476.828
529.135;34836.934;   -8.696;41854.852
529.721;37254.566;   -9.686;41237.711
530.306;40050.668;   -8.616;41259.445
530.892;42408.969;   -9.396;41506.047
531.478;43174.488;   -9.926;43559.613
532.063;43054.711;  -10.236;47695.563
532.649;44016.563;   -8.257;50808.324
533.235;45472.672;  -11.476;51787.500
533.820;45713.277;   -8.156;52145.035
534.406;46758.355;  -12.257;51133.488
534.991;43527.238;   -8.686;49996.805
535.576;40486.066;   -9.426;48882.852
536.162;39869.242;   -8.436;46942.285
536.747;40943.621;  -10.957;45711.746
537.333;41041.520;  -13.147;48510.180
537.918;42566.961;   -9.027;50439.891
538.503;44953.434;   -8.256;50863.711
539.088;45918.738;  -10.576;50906.922
539.673;47085.855;  -10.907;52621.965
540.259;48207.863;   -9.126;52368.094
540.844;47926.074;   -9.026;50879.109
541.429;47746.773;   -9.597;52077.777
542.014;50153.891;  -11.447;52716.695
542.599;51399.004;   -9.236;52363.281
543.184;51151.820;  -12.267;53187.137
543.769;52100.336;  -10.367;54697.605
544.354;52022.523;  -10.887;53913.914
544.938;46079.438;  -11.687;49680.164
545.523;41682.824;   -8.286;47386.277
546.108;41892.680;   -9.317;49151.949
546.693;43246.488;  -10.187;51384.637
547.278;41631.387;   -9.926;51853.254
547.862;40690.887;   -9.196;51173.750
548.447;40193.785;   -9.657;51691.395
549.031;41672.660;   -9.127;52456.703
549.616;44067.230;  -10.836;52714.516
550.201;44878.523;   -8.507;52414.598
550.785;45465.398;  -10.537;52355.059
551.370;48267.027;  -11.727;54589.453
551.954;48292.453;   -9.457;58267.348
552.538;47055.012;   -8.147;59062.176
553.123;46839.770;   -9.397;58115.285
553.707;48551.516;   -9.558;56556.285
554.291;47848.199;   -9.417;56201.668
554.876;49545.891;   -7.627;55335.762
555.460;48219.254;  -10.457;54155.703
556.044;43332.348;  -10.078;53721.484
556.628;42123.496;   -9.407;53731.016
557.212;41310.676;   -7.957;54312.531
557.796;41006.371;  -11.327;53797.773
558.380;44964.070;  -10.868;56145.984
558.964;45254.648;   -9.637;57277.930
559.548;43231.164;   -8.807;56459.641
560.132;45448.863;  -10.187;54434.543
560.716;46938.934;   -9.868;54800.617
561.300;48584.949;  -10.217;57606.945
561.884;48559.285;   -4.947;58972.445
562.467;45511.484;   -9.588;57327.570
563.051;41199.879;  -11.138;54962.434
563.635;41673.355;   -9.358;52594.473
564.219;42687.500;   -9.797;50610.410
564.802;41067.418;   -9.918;49551.180
565.386;40055.434;  -10.838;48370.953
565.969;39261.785;   -8.037;48178.871
566.553;38459.676;   -5.667;49957.305
567.136;38532.703;   -8.258;50369.594
567.720;39510.285;  -11.278;49492.004
568.303;37591.563;   -9.028;50616.352
568.887;35996.840;   -7.508;50727.148
569.470;34861.168;  -11.068;51698.379
570.053;36878.113;  -10.028;52122.078
570.637;37439.086;  -11.077;52536.438
571.220;39030.781;   -8.747;51186.098
571.803;41397.082;   -8.868;51032.762
572.386;42053.867;  -10.608;49609.887
572.969;41157.004;  -10.548;48285.926
573.552;38945.484;   -7.898;47624.285
574.135;38015.695;   -9.918;45498.641
574.718;33844.965;  -10.328;41970.434
575.301;31163.459;   -9.548;41447.137
575.884;28481.953;   -8.768;40923.836
576.467;33948.672;   -9.858;45267.723
577.050;34987.422;  -11.018;48175.543
577.633;36228.289;  -10.048;47729.328
578.216;35094.719;  -10.268;47579.793
578.799;32906.598;  -11.808;47820.996
579.381;31801.959;   -7.338;48115.551
579.964;32848.590;   -9.728;47333.766
580.547;33353.703;   -8.928;46668.969
581.129;33732.004;   -9.149;44466.141
581.712;35907.219;  -11.359;44164.922
582.294;36350.918;  -10.738;46477.855
582.877;34635.461;   -8.788;48244.254
583.459;33242.000;   -9.859;47437.895
584.042;33786.320;   -9.649;46943.219
584.624;33801.352;  -10.529;46792.227
585.206;32117.068;  -10.298;46557.250
585.789;30059.637;  -11.029;45793.773
586.371;29379.832;   -9.359;43836.391
586.953;28482.885;   -8.799;42972.492
587.536;26694.574;   -8.928;42487.211
588.118;25429.613;   -9.180;42086.414
588.700;25901.143;  -10.519;43389.930
589.282;27508.342;   -8.098;43646.039
589.864;29244.490;   -8.139;43438.109
590.446;31454.660;  -10.509;43151.926
591.028;34364.195;  -11.119;42781.867
591.610;35007.082;  -10.019;42839.098
592.192;33210.355;   -8.838;42820.402
592.774;31017.537;  -11.549;40724.277
593.356;28922.674;  -11.609;39874.789
593.937;29630.732;  -10.019;39980.648
594.519;32123.543;   -7.839;42069.633
595.101;33268.141;  -10.779;42976.031
595.683;34449.660;  -10.049;44084.441
596.264;34393.379;   -9.969;43478.797
596.846;32981.387;   -9.699;43803.672
597.427;32347.121;  -10.970;42986.934
598.009;33569.348;  -13.090;42832.219
598.591;33835.902;   -9.509;42580.086
599.172;32026.066;   -9.019;43061.805
599.753;29227.012;  -13.310;41691.469
600.335;28988.807;  -11.010;40692.520
600.916;29907.592;  -10.309;39982.422
601.498;30466.551;   -8.209;40318.617
602.079;30889.582;  -11.440;40670.609
602.660;32103.355;   -8.690;41450.898
603.241;33415.402;  -12.759;41137.738
603.823;31814.338;  -10.409;38868.797
604.404;32005.287;  -11.790;38182.785
604.985;30259.977;  -10.280;38078.047
605.566;30475.609;   -8.059;38056.633
606.147;31295.711;   -8.960;37020.418
606.728;31093.504;  -10.710;37883.359
607.309;30040.070;  -12.760;38748.273
607.890;28138.766;   -9.959;38850.230
608.471;26328.572;   -9.780;37457.918
609.051;27978.627;   -8.940;36066.457
609.632;30999.371;  -12.070;35991.074
610.213;33102.980;   -9.610;37402.641
610.794;33699.281;   -8.750;38383.363
611.374;33010.563;  -11.100;40562.387
611.955;33298.879;  -12.200;38533.727
612.536;32710.002;  -10.410;36951.789
613.116;32673.541;  -10.010;37197.891
613.697;31944.156;  -10.480;38411.125
614.277;30065.578;  -12.751;38673.938
614.858;29781.838;  -11.600;37075.863
615.438;29124.232;   -8.190;35092.906
616.019;27701.867;   -8.941;33666.301
616.599;28738.404;  -13.540;34189.023
617.179;29120.748;  -10.890;36952.047
617.760;29860.232;   -7.610;39582.574
618.340;29345.797;  -14.441;38943.977
618.920;28735.289;   -9.180;37594.156
619.500;28715.135;  -11.881;37866.938
620.080;30643.414;   -9.870;37869.043
620.660;30948.742;  -13.211;36868.617
621.241;30263.176;  -11.921;36352.309
621.821;29304.686;  -10.271;35459.520
622.401;28717.668;   -8.200;35207.414
622.980;29409.938;  -11.141;35980.422
623.560;30883.266;  -14.321;37351.328
624.140;30877.797;   -9.360;34388.582
624.720;27456.693;   -7.481;32368.764
625.300;24126.986;  -12.730;32638.629
625.880;28602.850;  -11.441;34599.035
626.459;32204.465;  -10.971;36831.738
627.039;33640.117;   -9.011;38299.098
627.619;33508.406;   -8.521;38289.574
628.198;34373.484;   -9.861;37220.695
628.778;34128.676;   -8.841;37632.563
629.357;32925.367;   -9.891;38003.012
629.937;30865.371;  -11.871;38402.039
630.516;29538.715;  -10.641;37868.801
631.096;31688.613;  -11.391;35760.410
631.675;33286.797;   -6.622;35225.219
632.254;31289.617;  -13.002;35130.289
632.834;29664.348;  -11.622;35794.570
633.413;31778.252;   -8.321;35788.922
633.992;30324.877;   -7.732;34532.863
634.571;29538.832;  -10.992;33590.113
635.151;30999.457;  -10.422;34943.863
635.730;31188.180;  -11.511;35352.523
636.309;30333.023;   -7.901;35366.605
636.888;29666.840;  -11.452;36165.637
637.467;29807.471;  -10.672;37515.902
638.046;29723.873;   -9.301;39288.695
638.625;30536.150;  -11.452;38279.699
639.204;31975.760;  -12.262;37741.598
639.782;31525.455;  -11.892;38364.551
640.361;30207.730;  -11.411;36740.621
640.940;27095.469;  -11.501;34950.082
641.519;27315.871;  -10.921;34137.398
642.097;30353.184;  -10.101;35654.258
642.676;31016.232;  -10.821;35637.957
643.255;33411.355;   -8.631;36567.074
643.833;35768.406;  -11.411;37809.434
644.412;36840.684;  -12.021;37337.293
644.990;36201.781;  -12.271;37018.531
645.569;35312.238;   -9.741;36518.469
646.147;34520.480;   -9.051;36186.430
646.726;32554.391;  -13.861;36267.688
647.304;32273.006;   -9.461;36647.625
647.882;31236.693;  -13.171;39286.742
648.461;31389.551;  -11.911;39157.703
649.039;31933.232;   -9.541;35412.883
649.617;34029.973;   -8.901;34744.918
650.195;32360.400;   -8.591;35403.098
650.773;30567.547;  -13.031;35053.797
651.352;28708.836;  -12.211;33756.816
651.930;25898.557;  -11.361;31868.773
652.508;23263.986;   -8.601;33121.551
653.086;26785.105;   -9.991;33564.793
653.663;31144.096;  -11.931;34054.668
654.241;33163.309;  -10.821;35693.309
654.819;33722.781;   -9.341;36422.906
655.397;31459.201;  -10.851;38213.484
655.975;29672.854;  -11.461;39507.625
656.553;30345.316;   -8.841;39498.223
657.130;29947.676;  -10.371;40395.480
657.708;28499.229;  -11.071;39242.020
658.286;28472.947;  -11.141;38920.020
658.863;30922.043;  -10.861;40202.898
659.441;36678.918;  -11.181;39677.938
660.018;38167.426;  -10.851;40413.355
660.596;36711.070;  -12.571;39931.414
661.173;37378.043;  -12.141;39604.531
661.750;34050.531;  -11.571;39700.070
662.328;30719.133;  -10.780;39292.809
662.905;29819.529;  -10.750;38235.648
663.482;26934.574;  -11.320;36212.305
664.060;25749.713;  -10.160;35944.945
664.637;31085.279;  -13.120;35170.785
665.214;33843.074;  -11.500;34197.523
665.791;32260.705;  -12.430;34549.520
666.368;30168.439;   -9.840;35118.578
666.945;29036.750;  -11.290;36019.418
667.522;29277.260;  -13.540;36048.438
668.099;29909.119;  -10.250;36243.914
668.676;28858.961;  -11.270;35958.875
669.253;28197.455;   -8.210;37384.730
669.830;26853.471;   -9.710;36779.629
670.407;26362.316;   -9.700;35231.289
670.984;26281.180;   -9.190;35544.270
671.560;25170.898;   -9.560;35466.867
672.137;24667.916;  -11.820;34280.863
672.714;27375.406;  -12.460;34632.863
673.290;31686.574;  -10.940;35135.422
673.867;32890.211;  -10.510;36114.480
674.443;30901.508;  -12.110;36152.859
675.020;31079.820;  -11.760;35327.238
675.596;32183.943;   -9.380;35795.176
676.173;31637.547;  -11.120;35430.355
676.749;30747.744;  -13.390;33549.516
677.326;29582.355;  -12.600;32210.012
677.902;28528.135;  -10.830;32068.871
678.478;27625.738;  -12.400;32583.891
679.054;28777.605;   -8.610;32088.928
679.631;30400.926;  -11.640;30978.848
680.207;31264.566;   -8.140;33160.887
680.783;31076.266;  -12.300;35570.363
681.359;29612.146;  -10.910;36125.184
681.935;28402.182;  -11.040;35240.922
682.511;28860.336;  -11.130;34429.961
683.087;29032.600;  -11.080;34463.680
683.663;30536.402;  -10.530;34648.898
684.239;31047.652;  -12.120;34546.457
684.815;30114.746;   -8.870;35586.375
685.390;28877.451;   -8.940;35821.895
685.966;28034.365;  -12.109;35085.871
686.542;26954.012;  -13.539;34198.230
687.118;26020.383;  -10.379;32847.707
687.693;26653.727;  -10.189;32794.027
688.269;26089.691;  -12.939;33072.367
688.844;24746.791;   -8.679;33141.664
689.420;25628.949;  -10.919;33965.742
689.995;26410.045;   -7.489;34655.523
690.571;25722.549;  -12.199;33576.742
691.146;25791.105;   -8.979;32657.219
691.722;27213.238;   -9.119;32526.979
692.297;27426.004;  -10.519;33014.617
692.872;27468.779;  -10.629;34012.254
693.448;27648.242;  -12.119;34237.434
694.023;26784.393;   -8.219;34142.672
694.598;25264.578;  -13.209;34132.031
695.173;24001.408;  -11.879;34205.250
695.748;24419.855;  -12.039;32882.488
696.323;25709.266;  -11.779;32864.906
696.898;26324.820;  -10.219;33170.004
697.473;27907.600;  -13.639;32432.984
698.048;28540.357;  -11.239;31649.303
698.623;30391.203;  -10.859;30778.141
699.198;32508.572;  -13.379;31140.119
699.773;32713.201;  -13.409;31764.299
700.348;31555.441;  -12.329;31780.816
700.922;31591.789;   -8.749;32046.375
701.497;31586.465;  -12.449;32603.574
702.072;30118.189;   -8.879;34799.871
702.646;28224.145;  -10.719;35793.172
703.221;27374.918;   -8.469;35201.590
703.795;28368.963;  -11.389;34764.527
704.370;27611.861;  -12.499;34307.367
704.944;25934.195;  -11.449;33509.887
705.519;25708.430;  -10.659;31388.584
706.093;24860.516;  -12.909;31340.104
706.668;25038.066;  -13.509;32630.281
707.242;26040.172;  -10.049;32728.779
707.816;26209.098;  -10.629;32947.238
708.390;25665.938;  -11.829;33277.855
708.965;24128.246;  -11.159;33834.336
709.539;24277.582;  -11.069;33709.273
710.113;24206.176;  -10.908;33044.313
710.687;22362.861;   -9.488;31953.992
711.261;22466.021;  -13.068;30505.949
711.835;24753.961;  -12.748;30262.369
712.409;26966.848;  -10.678;31254.447
712.983;26801.354;  -11.658;32754.986
713.557;26252.066;  -13.718;34018.824
714.131;26848.096;  -13.388;34579.625
714.704;29413.021;   -9.818;33890.262
715.278;31476.764;  -11.818;33531.102
715.852;31468.053;  -11.328;33601.660
716.425;32088.922;   -9.118;33515.117
716.999;32577.453;  -10.188;33185.555
717.573;31881.184;   -9.808;33905.996
718.146;30562.725;  -11.478;35199.293
718.720;29262.793;  -10.998;35060.551
719.293;28637.334;   -9.508;34973.230
719.867;29637.902;  -12.138;36394.449
720.440;28884.342;  -11.288;36663.008
721.013;30276.668;  -11.428;35102.426
721.587;31850.277;  -11.698;33985.266
722.160;33684.355;  -11.608;33524.965
722.733;34493.488;  -11.428;32987.043
723.306;31393.059;  -12.518;33066.301
723.880;29598.994;   -7.408;33399.500
724.453;29269.045;  -11.048;33468.297
725.026;28272.018;  -11.678;33816.637
725.599;26764.340;  -10.978;32797.996
726.172;24951.146;   -8.838;33187.434
726.745;24611.145;  -11.438;35136.613
727.318;25941.158;   -9.828;35751.730
727.891;26679.252;  -10.868;35890.430
728.463;26786.152;  -11.348;34822.090
729.036;25749.346;  -11.608;32895.086
729.609;25463.566;  -14.738;31823.225
730.182;25771.826;   -8.448;31445.283
730.754;26518.871;  -11.228;32373.223
731.327;26625.418;  -12.018;33676.820
731.900;28230.840;  -13.748;33417.000
732.472;29363.447;  -10.928;31978.498
733.045;29274.293;   -9.478;30368.777
733.617;27588.467;  -12.967;30574.215
734.190;26787.262;  -11.707;31280.975
734.762;26203.492;  -11.067;31674.412
735.334;25303.008;  -10.587;31247.291
735.907;24218.818;  -11.947;29876.211
736.479;24580.625;  -11.667;29808.488
737.051;26061.031;  -10.187;30233.547
737.623;26447.998;   -6.887;31469.086
738.195;27521.578;  -12.117;31784.225
738.768;29773.484;  -14.077;32120.523
739.340;29507.297;  -12.207;32094.342
739.912;27395.682;   -8.977;31312.680
740.484;26051.811;  -11.017;31946.238
741.056;27810.848;  -13.517;32984.059
741.628;30413.879;  -11.507;33897.715
742.199;30868.148;   -7.597;33213.016
742.771;30441.586;  -12.227;31369.113
743.343;29093.104;  -12.427;31865.473
743.915;27126.152;   -9.827;32388.631
744.487;25899.260;  -10.007;31079.568
745.058;25109.736;  -11.887;30570.107
745.630;24083.895;  -10.787;29970.127
746.201;23691.371;  -10.887;29186.766
746.773;25422.889;   -9.707;28805.723
747.344;26782.762;  -11.137;29591.223
747.916;26129.148;  -11.887;31412.201
748.487;25195.156;   -9.707;32194.898
749.059;24717.830;  -10.027;32533.719
749.630;24269.832;  -11.787;32158.518
750.201;23188.115;  -12.767;30855.395
750.773;21187.955;  -11.497;28622.555
751.344;21694.508;   -9.937;28405.732
751.915;21563.887;  -11.567;28461.551
752.486;19350.400;  -13.267;27842.850
753.057;18304.217;  -10.627;27845.008
753.628;18359.742;  -11.657;27728.107
754.199;20537.541;  -12.097;27381.086
754.770;22135.385;  -11.447;25882.203
755.341;22719.855;  -11.997;25886.184
755.912;21263.744;  -10.207;26050.861
756.483;19230.701;  -10.937;26798.779
757.054;19506.295;  -11.527;27048.238
757.625;19800.000;  -12.886;26294.838
758.195;19238.875;  -11.226;26142.076
758.766;19750.803;  -12.366;26392.234
759.337;18696.219;  -11.946;26334.594
759.907;18201.646;  -13.856;27579.652
760.478;19477.164;   -9.606;28352.770
761.048;21204.932;  -11.606;27325.088
761.619;21959.918;  -11.036;26460.428
762.189;20353.207;  -12.206;26029.826
762.760;19281.252;   -9.666;26430.145
763.330;20037.143;   -9.796;26670.902
763.900;19968.117;  -10.896;26603.021
764.471;19601.900;  -11.726;25542.740
765.041;20398.211;   -9.656;24358.459
765.611;20878.855;  -11.276;23991.297
766.181;20506.762;  -12.116;24470.236
766.751;20289.678;  -12.376;24845.975
767.321;20421.305;  -11.626;24533.633
767.891;20039.854;  -10.426;24916.492
768.461;18390.838;  -13.456;24776.771
769.031;16192.516;  -11.616;24757.988
769.601;15284.019;  -11.356;24181.088
770.171;15098.146;  -11.586;23670.387
770.741;15491.215;  -12.696;22960.045
771.311;17247.818;  -10.226;22917.523
771.880;18311.268;  -11.146;23562.941
772.450;18722.225;  -11.716;24216.500
773.020;18350.740;  -13.226;24140.398
773.589;17033.701;  -12.586;24414.857
774.159;16704.301;  -10.246;23858.717
774.729;16192.303;  -11.586;22942.135
775.298;16039.361;  -15.926;22324.033
775.867;16024.469;  -10.426;21140.313
776.437;15700.124;  -11.416;20838.092
777.006;13847.895;  -12.766;20599.510
777.576;13675.729;  -13.666;20508.809
778.145;15200.523;  -10.066;20732.947
778.714;15639.799;  -10.276;21062.465
779.283;15044.549;  -12.086;20949.664
779.853;14649.442;  -14.016;20508.623
780.422;14417.718;  -12.376;20649.082
780.991;13833.676;   -9.246;21527.520
781.560;13611.671;   -9.775;22632.658
782.129;13944.970;  -12.495;23048.277
782.698;14020.417;  -11.775;23438.555
783.267;13791.833;  -10.065;23267.734
783.836;14609.587;  -12.455;22415.133
784.404;15209.439;  -13.385;20443.152
784.973;15192.168;  -11.045;19699.150
785.542;14671.978;   -9.505;19763.828
786.111;13937.480;   -9.385;20341.408
786.679;13753.046;  -13.475;20207.967
787.248;13646.127;  -11.245;19516.465
787.817;12228.279;  -12.485;18900.363
788.385;10739.633;  -11.165;17879.121
788.954;11261.772;  -11.755;17658.301
789.522;12218.507;   -9.625;17788.879
790.090;12497.121;   -9.665;18118.277
790.659;11748.572;   -9.295;18338.736
791.227;11574.793;  -12.175;18508.615
791.795;12260.418;  -12.145;17898.254
792.364;12370.025;  -11.575;17295.133
792.932;11893.691;  -11.085;16822.051
793.500;11613.354;  -11.345;17040.148
794.068;11294.360;  -12.565;17179.787
794.636;11818.588;  -12.105;16664.246
795.204;12909.806;  -11.995;16524.545
795.772;12964.576;  -12.615;17274.564
796.340;12412.240;  -12.425;17891.002
796.908;11909.279;  -11.455;17648.561
797.476;11009.725;  -12.165;17064.080
798.044; 9813.232;  -15.795;16672.777
798.612; 9216.304;  -10.985;17023.996
799.180; 9727.699;  -12.055;16561.615
799.747;10208.824;  -12.525;15962.773
800.315; 9401.949;  -14.765;15296.992
800.883; 8229.541;  -12.435;14801.771
801.450; 8117.276;  -11.295;14534.430
802.018; 8602.527;  -11.185;14173.248
802.585; 8786.999;  -11.625;14029.547
803.153; 8096.012;  -10.665;13836.846
803.720; 7540.406;  -10.275;13567.324
804.287; 7722.463;  -12.865;13360.622
804.855; 8051.783;  -12.324;13681.981
805.422; 8005.465;  -11.574;13536.560
805.989; 7657.047;  -11.004;13355.958
806.556; 7877.846;  -12.214;13747.896
807.124; 8288.688;  -13.304;13987.376
807.691; 8232.644;  -12.034;14038.674
808.258; 8076.553;  -11.014;14120.152
808.825; 7988.437;  -11.804;13860.111
809.392; 7746.408;  -11.544;13268.790
809.959; 7518.650;  -14.954;12680.389
810.526; 7810.611;  -10.214;12427.308
811.093; 7879.878;  -10.754;12030.105
811.659; 7521.049;  -12.194;11653.664
812.226; 6784.438;   -9.194;11637.183
812.793; 6546.573;   -9.644;11611.521
813.360; 7184.184;  -11.544;11885.181
813.926; 8185.926;  -12.814;12770.539
814.493; 8306.711;  -11.524;12677.638
815.060; 8082.001;  -12.254;11974.336
815.626; 7955.662;  -12.114;11594.715
816.193; 7456.799;  -11.994;11579.474
816.759; 6862.829;  -11.464;11666.972
817.325; 6408.827;  -10.444;11325.530
817.892; 6129.651;  -11.124;11105.369
818.458; 6143.139;  -11.864;10843.928
819.024; 6622.353;  -10.634;10714.406
819.591; 6833.306;  -10.554;10469.165
820.157; 6905.207;  -13.334;10235.523
820.723; 6955.006;  -13.044;10847.563
821.289; 6823.481;   -9.664;11040.980
821.855; 6849.226;  -10.994;10357.100
822.421; 7080.363;  -11.784; 9978.918
822.987; 7276.540;  -12.554; 9754.177
823.553; 7313.415;  -12.554;10065.755
824.119; 7014.927;   -8.544;10036.294
824.685; 6316.523;  -12.144;10029.192
825.251; 6006.390;  -12.754;10199.230
825.816; 5684.063;  -11.354; 9820.189
826.382; 5278.921;  -11.004; 9297.248
826.948; 5191.202;  -11.004; 9381.347
827.513; 5420.531;  -12.474; 9450.726
828.079; 5554.808;  -13.084; 9472.444
828.645; 5683.563;  -10.813; 9292.643
829.210; 5523.127;  -11.593; 9065.341
829.776; 5520.707;  -12.633; 9132.620
830.341; 5822.955;  -10.473; 9092.878
830.906; 5773.680;   -8.763; 9078.557
831.472; 5080.053;  -13.453; 8534.535
832.037; 4081.534;  -12.173; 8677.874
832.602; 3739.949;  -14.093; 8628.692
833.167; 4114.277;  -13.593; 8879.031
833.733; 4772.891;  -10.793; 9189.790
834.298; 5179.540;  -14.783; 9052.608
834.863; 4814.418;  -11.023; 8895.087
835.428; 4422.874;  -11.113; 8824.266
835.993; 4691.671;   -9.983; 8845.385
836.558; 4937.663;  -13.003; 8888.563
837.123; 4844.941;  -10.733; 8966.582
837.688; 4511.225;   -9.683; 8617.860
838.253; 4294.171;  -12.253; 8590.699
838.817; 4498.409;  -11.643; 8443.797
839.382; 4757.882;  -11.953; 8799.356
839.947; 4748.563;  -11.443; 8810.595
840.511; 4577.438;  -10.843; 8796.394
841.076; 4523.459;  -13.533; 8347.231
841.641; 4653.447;  -11.743; 8224.330
842.205; 4555.640;  -10.013; 8223.349
842.770; 4410.556;  -11.023; 8622.107
843.334; 4399.711;  -14.273; 8410.386
843.898; 4554.378;  -11.323; 8337.465
844.463; 4921.361;  -10.263; 8506.283
845.027; 5093.343;  -10.353; 8280.962
845.591; 5021.863;  -12.163; 8231.141
846.156; 4810.719;  -12.263; 7969.179
846.720; 4798.400;  -11.553; 7768.278
847.284; 4740.225;  -12.393; 7630.957
847.848; 4141.396;  -12.623; 7472.395
848.412; 3545.692;  -11.863; 7437.394
848.976; 3436.522;  -10.203; 7674.592
849.540; 3514.948;  -10.603; 7836.011
850.104; 3638.448;  -12.423; 7913.669
850.668; 3725.576;  -14.613; 7694.508
851.232; 3656.088;  -12.873; 7756.887
851.796; 3652.084;  -14.192; 7926.545
852.359; 3795.960;  -13.652; 7827.844
852.923; 3785.000;  -11.402; 7641.163
853.487; 3682.367;  -12.022; 7342.501
854.050; 3564.125;  -15.202; 7042.820
854.614; 3532.078;  -14.592; 7151.338
855.177; 3442.803;  -12.572; 7105.077
855.741; 3417.710;   -9.932; 6989.675
856.304; 3601.511;  -12.192; 6596.634
856.868; 3702.341;  -13.462; 6356.272
857.431; 3681.279;  -11.542; 6468.571
857.995; 3693.205;  -12.062; 6373.210
858.558; 3450.501;  -11.142; 6324.448
859.121; 3134.866;  -11.742; 6408.327
859.684; 2940.004;  -10.332; 6347.886
860.247; 2906.688;  -11.962; 6321.264
860.810; 3031.454;  -12.332; 6301.903
861.374; 3069.672;  -10.292; 6607.881
861.937; 2996.194;  -12.062; 6408.200
862.500; 3072.966;  -11.702; 6572.639
863.062; 3220.735;  -13.852; 6387.297
863.625; 3314.038;  -12.972; 6190.836
864.188; 3220.963;  -10.292; 5807.254
864.751; 3085.624;  -12.382; 5682.413
865.314; 2931.349;  -13.232; 5547.492
865.876; 2737.868;  -12.772; 5500.150
866.439; 2568.561;  -11.952; 5415.909
867.002; 2525.695;   -9.332; 5501.567
867.564; 2709.080;  -11.712; 5413.946
868.127; 2882.000;  -12.012; 5160.325
868.689; 2696.641;  -11.882; 5133.183
869.252; 2395.205;  -11.572; 5252.382
869.814; 2253.856;  -10.692; 5297.141
870.377; 2319.650;  -12.392; 5390.919
870.939; 2430.086;  -10.582; 5599.898
871.501; 2458.463;  -12.782; 5248.336
872.063; 2418.890;  -15.612; 4854.235
872.626; 2405.045;  -13.922; 4817.074
873.188; 2301.466;  -13.832; 4987.732
873.750; 2148.369;  -10.962; 4868.651
874.312; 2162.375;  -11.022; 4779.330
874.874; 2192.097;  -13.152; 4866.348
875.436; 2163.973;  -13.401; 4718.887
875.998; 2123.627;   -8.891; 4660.005
876.560; 2066.682;  -12.591; 4462.964
877.122; 1999.281;  -14.531; 4145.042
877.683; 1909.224;  -10.781; 4056.481
878.245; 1842.289;  -14.281; 3950.740
878.807; 1846.136;  -10.311; 4058.958
879.369; 1787.858;  -13.201; 3954.677
879.930; 1744.792;  -12.061; 3941.495
880.492; 1758.234;   -9.181; 4067.014
881.053; 1786.965;  -12.051; 3859.633
881.615; 1765.920;  -11.501; 3776.071
882.176; 1671.706;  -12.221; 3734.750
882.738; 1530.926;   -8.931; 3678.489
883.299; 1407.094;  -13.571; 3405.407
883.860; 1404.767;  -12.331; 3351.106
884.422; 1366.536;  -10.201; 3394.044
884.983; 1229.345;  -12.521; 3166.443
885.544; 1120.972;  -12.291; 3189.802
886.105; 1090.879;  -12.991; 3160.360
886.666; 1092.584;  -12.901; 3093.059
887.227; 1072.958;  -12.061; 2941.957
887.788; 1023.414;  -11.641; 2974.836
888.349;  976.701;  -14.691; 2721.214
888.910;  933.695;   -9.681; 2696.493
889.471;  911.787;   -9.971; 2560.172
890.032;  892.735;  -13.151; 2558.190
890.593;  865.581;  -12.051; 2567.669
891.153;  834.302;  -12.841; 2460.307
891.714;  807.827;  -13.561; 2372.046
892.275;  788.692;  -12.401; 2309.505
892.835;  754.802;  -13.191; 2382.543
893.396;  707.733;  -12.551; 2295.502
893.956;  688.183;  -11.981; 2162.420
894.517;  691.760;  -12.221; 2125.439
895.077;  668.526;  -12.021; 2086.978
895.638;  603.004;  -10.891; 2126.316
896.198;  542.454;  -13.171; 1838.275
896.758;  501.023;  -11.891; 1892.813
897.319;  456.899;  -12.491; 1792.232
897.879;  433.294;  -12.401; 1762.751
898.439;  406.369;  -13.431; 1661.149
898.999;  386.846;  -11.340; 1781.468
899.559;  377.448;  -13.930; 1703.347
900.119;  362.804;  -13.730; 1537.525
900.679;  345.648;   -9.210; 1638.384
901.239;  330.473;  -10.860; 1527.902
901.799;  312.489;  -11.450; 1456.441
902.359;  289.486;  -13.800; 1357.140
902.919;  279.283;  -12.130; 1331.118
903.479;  275.253;  -12.650; 1317.257
904.038;  265.672;  -16.110; 1262.595
904.598;  247.518;  -13.690; 1152.034
905.158;  231.449;  -10.290; 1240.893
905.717;  223.067;  -10.670; 1233.691
906.277;  220.751;  -14.040; 1217.330
906.836;  221.543;  -13.510; 1222.408
907.396;  215.300;  -11.530; 1193.047
907.955;  205.665;  -13.190; 1182.526
908.515;  194.234;  -12.950; 1099.364
909.074;  184.707;  -12.390; 1092.863
909.633;  179.884;  -10.340; 1069.121
910.192;  176.858;  -11.170; 1196.460
910.752;  173.941;  -14.200; 1029.960
911.311;  170.226;  -13.810; 1009.780
911.870;  167.787;  -12.750;  971.460
912.429;  167.447;  -12.380; 1094.080
912.988;  165.008;  -11.930; 1081.060
913.547;  160.091;  -10.990;  940.380
914.106;  156.764;  -11.200;  999.420
914.665;  154.231;  -13.150;  984.020
915.224;  152.675;  -13.310; 1035.760
915.782;  150.668;  -13.340;  922.560
916.341;  150.282;  -10.710; 1049.840
916.900;  147.081;  -12.980;  925.260
917.458;  146.021;  -13.060;  884.220
918.017;  145.946;  -10.900;  942.600
918.576;  144.028;  -11.630;  904.440
919.134;  142.974;  -12.860;  837.980
919.693;  142.503;  -15.160;  893.060
920.251;  142.436;  -13.470;  876.500
920.809;  140.882;  -13.700;  839.580
921.368;  142.392;  -13.420;  885.360
921.926;  142.674;  -14.710;  842.940
922.484;  144.074;  -12.560;  903.360
923.042;  143.539;  -11.930;  880.340
923.601;  145.158;  -10.270;  998.680
924.159;  142.612;  -12.960;  935.560
924.717;  140.053;  -13.040;  841.080
925.275;  141.865;  -12.560;  903.240
925.833;  142.825;  -13.040;  779.320
926.391;  145.766;  -13.360;  938.380
926.949;  145.532;  -13.940;  857.680
927.506;  145.183;   -9.400;  903.500
928.064;  144.609;  -10.940;  877.580
928.622;  144.564;  -13.180;  880.100
929.180;  145.381;  -12.730;  814.180
929.737;  145.204;  -12.840;  808.540
930.295;  148.595;  -11.810;  928.480
930.853;  154.632;  -13.650;  849.100
931.410;  159.856;  -13.580;  821.120
931.968;  160.650;  -12.020;  940.660
932.525;  160.715;  -13.320;  909.380
933.082;  159.819;  -13.800;  811.440
933.640;  163.686;  -11.380;  925.900
934.197;  165.941;  -11.480;  886.360
934.754;  169.043;  -13.220;  897.780
935.312;  167.538;  -14.950;  863.340
935.869;  165.201;  -10.940; 1012.980
936.426;  160.161;  -12.100;  872.800
936.983;  159.409;  -12.930;  889.020
937.540;  160.362;  -14.250;  838.280
938.097;  166.754;  -12.600;  940.120
938.654;  172.582;  -11.260;  898.860
939.211;  176.242;  -13.020;  952.480
939.768;  177.667;  -15.760;  915.420
940.324;  182.586;  -13.920;  904.200
940.881;  181.013;  -11.620;  878.500
941.438;  177.889;   -9.870; 1021.200
941.995;  174.488;  -13.920;  992.560
942.551;  170.902;  -12.830;  875.620
943.108;  171.280;  -11.980;  937.920
943.664;  174.605;  -13.740;  869.340
944.221;  183.338;  -12.670; 1088.140
944.777;  184.022;  -13.250;  869.680
945.334;  180.178;  -13.000;  884.840
945.890;  178.165;  -13.020;  946.480
946.446;  177.227;  -13.880;  947.020
947.003;  177.245;  -12.660;  964.940
947.559;  178.137;   -8.730; 1063.040
948.115;  176.497;  -11.960; 1026.540
948.671;  171.923;  -12.360;  967.300
949.227;  166.682;  -12.700;  859.560
949.783;  163.700;  -13.450;  858.900
950.339;  161.992;  -10.620;  991.000
950.895;  158.874;  -14.770; 1023.840
951.451;  157.635;  -13.650;  925.280
952.007;  159.350;  -11.180;  998.540
952.563;  158.541;  -11.680;  937.780
953.118;  157.440;  -13.280;  904.940
953.674;  159.155;  -12.510;  935.780
954.230;  158.199;  -12.220;  949.640
954.785;  155.402;  -12.190;  936.640
955.341;  150.754;  -12.270;  998.160
955.897;  149.102;  -14.900;  834.660
956.452;  150.817;  -12.520;  953.840
957.008;  149.633;   -9.410; 1083.640
957.563;  147.076;  -11.280; 1009.540
958.118;  144.246;  -13.470;  877.700
958.674;  143.826;  -12.190;  946.780
959.229;  145.782;  -12.760; 1013.980
959.784;  149.997;  -15.710;  832.400
960.339;  155.277;  -12.540; 1001.280
960.894;  154.815;  -11.680;  963.760
961.449;  150.792;  -11.410;  859.960
962.004;  149.016;  -10.430; 1212.840
962.559;  142.364;  -14.040;  860.140
963.114;  136.455;  -14.270;  742.480
963.669;  136.510;  -11.320;  915.500
964.224;  136.981;  -14.620;  874.340
964.779;  136.328;  -14.150;  828.420
965.334;  136.358;  -10.850; 1017.860
965.888;  136.086;  -14.530;  875.360
966.443;  138.071;  -13.520;  972.380
966.998;  137.055;  -13.370;  819.460
967.552;  133.962;   -9.960;  908.380
968.107;  130.356;  -12.360;  868.300
968.661;  131.898;  -12.270;  922.440
969.216;  130.048;  -12.140;  856.280
969.770;  130.181;  -11.860;  917.200
970.324;  129.842;  -12.170;  923.140
970.879;  128.574;  -14.160;  947.180
971.433;  127.763;  -12.940;  952.720
971.987;  123.738;  -10.180;  895.340
972.541;  121.938;  -12.130;  917.100
973.095;  121.094;  -14.980; 1009.460
973.649;  119.674;  -14.480;  809.480
974.203;  123.264;  -13.530;  829.040
974.757;  128.090;  -12.060;  855.220
975.311;  126.846;  -13.240;  872.600
975.865;  122.923;  -12.550;  881.820
976.419;  116.256;  -13.180;  857.400
976.973;  106.508;  -14.100;  849.620
977.526;   95.357;  -13.330;  949.920
978.080;   86.514;  -15.390;  796.780
978.634;   85.076;  -11.670;  921.320
979.187;   82.878;  -10.640;  905.400
979.741;   86.007;  -13.330; 1018.380
980.294;   86.262;  -14.480;  789.160
980.848;   87.236;  -13.420;  717.220
981.401;   87.727;  -12.360;  816.540
981.955;   86.238;  -12.480;  844.300
982.508;   83.565;  -14.000;  746.340
983.061;   84.283;  -10.440;  915.260
983.615;   82.055;  -14.340;  798.800
984.168;   79.341;  -14.950;  770.080
984.721;   81.451;  -13.270;  880.760
985.274;   78.874;  -12.240;  867.500
985.827;   77.341;  -12.720;  834.220
986.380;   74.581;  -14.920;  721.340
986.933;   74.897;  -12.860;  864.800
987.486;   74.051;  -10.440;  861.920
988.039;   72.854;  -11.820;  863.100
988.591;   72.419;  -13.760;  893.260
989.144;   70.239;  -14.080;  737.260
989.697;   70.489;  -13.440;  758.740
990.250;   70.761;  -12.050;  858.100
990.802;   69.289;  -14.550;  755.860
991.355;   70.350;  -10.770;  974.880
991.907;   68.709;  -11.710;  864.320
992.460;   67.067;  -12.650;  753.760
993.012;   65.701;  -13.860;  749.540
993.565;   64.575;  -14.310;  711.360
994.117;   64.709;   -9.920;  950.780
994.669;   60.092;  -13.420;  701.320
995.221;   58.637;  -14.200;  791.920
995.774;   57.902;  -13.400;  787.580
996.326;   56.925;  -11.850;  740.220
996.878;   56.717;  -12.230;  838.420
997.430;   54.190;  -14.260;  699.860
997.982;   55.149;  -11.430;  750.140
998.534;   54.865;  -11.590;  739.060
999.086;   53.632;  -11.960;  738.220
999.638;   52.987;  -13.640;  661.380
1000.190;   53.650;  -13.660;  699.320
1000.741;   52.801;   -9.980;  742.700
1001.293;   51.625;  -11.860;  686.020
1001.845;   51.096;  -14.280;  676.640
1002.396;   50.987;  -12.270;  743.400
1002.948;   51.155;  -13.670;  737.400
1003.500;   48.888;  -12.010;  723.780
1004.051;   50.628;  -11.890;  907.580
1004.603;   49.175;  -11.220;  791.820
1005.154;   46.040;  -13.210;  608.980
1005.705;   45.848;  -11.850;  723.960
1006.257;   44.405;  -13.670;  707.220
1006.808;   43.758;  -12.060;  685.460
1007.359;   43.305;  -10.250;  763.240
1007.910;   42.054;  -13.440;  646.640
1008.461;   41.308;  -13.170;  732.940
1009.013;   40.423;  -14.590;  588.340
1009.564;   42.063;  -12.100;  793.520
1010.115;   38.973;  -14.000;  597.040
1010.665;   39.125;  -15.020;  602.160
1011.216;   39.457;  -12.560;  667.920
1011.767;   38.757;  -11.330;  697.920
1012.318;   39.768;  -11.450;  736.980
1012.869;   37.994;  -11.000;  679.000
1013.419;   37.881;  -11.760;  603.120
1013.970;   37.839;  -11.800;  666.640
1014.521;   37.121;  -14.750;  620.620
1015.071;   37.137;  -14.430;  670.380
1015.622;   37.695;  -14.170;  635.460
1016.172;   36.376;  -11.700;  596.820
1016.723;   36.055;  -13.230;  614.380
1017.273;   36.191;  -16.120;  604.160
1017.823;   36.075;  -13.360;  650.340
1018.374;   35.351;  -13.710;  611.760
1018.924;   35.269;  -11.050;  716.880
1019.474;   35.032;  -14.120;  718.880
1020.024;   34.694;  -12.990;  657.580
1020.574;   35.355;  -12.010;  726.160
1021.124;   35.153;  -12.080;  673.580
1021.674;   33.464;  -15.860;  559.120
1022.224;   34.846;  -11.710;  708.940
1022.774;   33.843;  -13.030;  668.820
1023.324;   33.681;  -11.000;  753.520
1023.874;   35.511;  -13.270;  875.760
1024.423;   33.226;  -14.570;  613.700
1024.973;   33.054;  -12.620;  610.760
1025.523;   31.419;  -12.630;  620.960
1026.072;   31.210;  -14.110;  606.420
1026.622;   31.570;  -15.390;  675.740
1027.172;   32.391;   -9.090;  715.660
1027.721;   30.765;  -12.250;  601.220
1028.270;   31.578;  -15.590;  663.400
1028.820;   31.471;  -13.840;  638.080
1029.369;   30.449;  -13.170;  612.700
1029.918;   30.556;  -14.080;  649.840
1030.468;   29.685;  -13.860;  564.780
1031.017;   31.297;  -12.970;  634.800
1031.566;   29.852;  -12.320;  608.900
1032.115;   30.360;  -13.140;  694.500
1032.664;   28.679;  -14.560;  596.480
1033.213;   30.598;  -11.620;  735.420
1033.762;   29.347;  -13.190;  635.620
1034.311;   28.574;  -13.460;  677.220
1034.860;   29.077;  -15.770;  691.000
1035.408;   29.910;  -13.100;  722.720
1035.957;   29.548;  -12.880;  719.540
1036.506;   26.892;  -13.640;  530.800
1037.055;   29.472;  -12.420;  844.320
1037.603;   28.685;  -13.740;  664.000
1038.152;   26.911;  -13.840;  534.760
1038.700;   27.625;  -10.770;  585.740
1039.249;   27.233;  -13.520;  681.220
1039.797;   27.260;  -13.060;  633.360
1040.345;   26.765;  -11.760;  705.420
1040.894;   27.029;  -10.790;  625.300
1041.442;   26.261;  -15.420;  632.200
1041.990;   25.703;  -14.550;  559.160
1042.538;   25.159;  -15.620;  536.180
1043.087;   26.083;  -14.940;  570.860
1043.635;   26.325;  -12.100;  670.500
1044.183;   26.110;  -13.200;  586.400
1044.731;   25.055;  -11.630;  576.000
1045.279;   24.535;  -14.200;  674.920
1045.827;   27.188;  -12.510;  892.400
1046.374;   24.040;  -14.960;  515.420
1046.922;   23.374;  -11.850;  590.580
1047.470;   25.334;  -13.770;  691.300
1048.018;   24.101;  -15.380;  647.960
1048.565;   25.234;  -14.010;  708.600
1049.113;   23.361;  -14.620;  557.000
1049.660;   23.508;  -14.940;  629.660
1050.208;   23.966;  -14.540;  675.640
1050.755;   23.902;  -13.710;  606.580
1051.303;   24.211;  -11.880;  686.820
1051.850;   23.190;  -12.160;  635.120
1052.397;   20.871;  -15.110;  473.960
1052.945;   22.333;  -14.770;  617.760
1053.492;   23.326;  -12.320;  741.840
1054.039;   23.031;  -13.290;  720.180
1054.586;   22.057;  -15.210;  557.240
1055.133;   22.587;  -12.920;  693.140
1055.680;   22.641;  -12.610;  646.620
1056.227;   21.178;  -12.620;  542.780
1056.774;   23.325;  -13.010;  794.980
1057.321;   20.989;  -16.180;  523.260
1057.868;   21.985;  -11.230;  651.320
1058.415;   21.544;  -10.890;  651.980
1058.961;   21.490;  -12.530;  678.940
1059.508;   21.653;  -14.120;  643.820
1060.055;   20.548;  -13.340;  581.780
1060.601;   21.481;  -12.920;  624.300
1061.148;   21.066;  -14.430;  616.820
1061.694;   20.584;  -14.140;  592.580
1062.241;   20.499;  -12.550;  596.320
1062.787;   21.154;  -13.370;  663.140
1063.334;   22.298;  -12.260;  808.560
1063.880;   20.805;  -10.800;  668.360
1064.426;   20.856;   -9.920;  706.820
1064.972;   19.135;  -12.970;  601.340
1065.518;   18.781;  -14.440;  566.640
1066.065;   19.789;  -12.680;  624.460
1066.611;   19.109;  -13.520;  598.800
1067.157;   19.758;  -11.100;  641.860
1067.703;   18.989;  -14.100;  668.480
1068.249;   19.322;  -13.750;  605.220
1068.794;   19.039;  -11.070;  626.880
1069.340;   18.155;  -13.210;  578.960
1069.886;   19.038;  -14.850;  590.700
1070.432;   17.270;  -14.580;  541.720
1070.977;   17.384;  -12.930;  601.080
1071.523;   17.073;  -11.970;  573.060
1072.068;   17.979;  -13.730;  582.000
1072.614;   16.932;  -14.550;  527.760
1073.160;   17.922;  -13.690;  687.040
1073.705;   15.813;  -14.780;  572.520
1074.250;   17.305;  -15.430;  559.900
1074.796;   18.075;  -11.620;  655.160
1075.341;   17.691;  -11.580;  664.100
1075.886;   17.515;  -13.190;  594.240
1076.431;   17.099;  -13.630;  649.880
1076.976;   16.616;  -11.670;  639.220
1077.521;   16.307;  -11.600;  583.080
1078.067;   15.382;  -13.920;  579.400
1078.612;   16.433;  -12.910;  661.620
1079.156;   16.362;  -15.340;  601.540
1079.701;   16.151;  -12.560;  693.260
1080.246;   15.936;  -12.490;  696.300
1080.791;   15.740;  -14.550;  625.020
1081.336;   16.127;  -15.210;  659.320
1081.880;   15.819;  -11.280;  649.680
1082.425;   14.606;  -12.830;  573.480
1082.970;   16.790;  -11.680;  717.040
1083.514;   15.438;  -15.500;  597.000
1084.059;   14.906;  -11.770;  586.720
1084.603;   13.817;  -13.480;  565.840
1085.147;   14.550;  -13.940;  645.220
1085.692;   15.569;  -13.170;  716.800
1086.236;   13.216;  -15.740;  503.140
1086.780;   15.608;  -10.750;  751.440
1087.325;   14.755;  -14.900;  654.620
1087.869;   15.543;  -15.160;  610.700
1088.413;   15.137;  -11.030;  705.040
1088.957;   13.238;  -15.210;  543.400
1089.501;   15.285;  -12.310;  766.640
1090.045;   15.140;  -12.790;  726.480
1090.589;   11.816;  -14.040;  569.920
1091.133;   14.362;  -12.800;  673.340
1091.676;   13.056;  -13.600;  591.940
1092.220;   13.370;  -12.960;  600.920
1092.764;   14.065;  -10.830;  706.960
1093.307;   13.273;  -12.390;  673.780
1093.851;   11.510;  -15.850;  556.540
1094.395;   14.025;  -12.980;  683.140
1094.938;   12.148;  -13.670;  632.520
1095.482;   11.856;  -12.740;  559.800
1096.025;   13.441;  -13.340;  710.880
1096.568;   13.764;  -10.500;  779.280
1097.112;   10.479;  -13.500;  508.180
1097.655;   12.062;  -13.060;  603.000
1098.198;   10.710;  -13.240;  600.180
1098.741;   11.127;  -15.490;  612.860
1099.285;   12.435;  -13.410;  657.300
1099.828;    9.216;  -15.640;  439.400
1100.371;   11.536;  -13.980;  608.160
1100.914;   11.616;  -13.990;  682.660
1101.457;   12.027;  -15.030;  679.900
1101.999;    9.784;  -12.480;  584.680
1102.542;   11.749;  -12.410;  641.440
1103.085;   11.270;  -14.730;  658.500
1103.628;   11.821;  -12.190;  762.060
1104.170;    9.775;  -12.360;  588.280
1104.713;   10.150;  -13.350;  646.700
1105.256;    9.854;  -14.930;  557.440
1105.798;    8.935;  -15.150;  499.980
1106.341;   11.843;  -13.230;  728.900
1106.883;    9.520;  -14.680;  521.340
1107.425;   10.443;  -14.810;  668.180
1107.968;    9.333;  -12.940;  612.380
1108.510;   10.769;  -10.550;  684.960
1109.052;    8.342;  -15.640;  612.620
1109.594;    9.286;  -14.440;  554.440
1110.136;   10.753;  -11.380;  643.220
1110.679;    9.093;  -13.090;  633.080
1111.221;    9.398;  -14.230;  604.460
1111.763;    8.657;  -14.260;  559.220
1112.304;    7.690;  -14.510;  547.140
1112.846;    8.678;  -14.700;  666.240
1113.388;   12.434;  -12.270;  942.180
1113.930;    9.407;  -13.340;  694.200
1114.472;    8.616;  -12.560;  606.540
1115.013;    6.846;  -14.280;  551.280
1115.555;    7.616;  -14.010;  587.100
1116.097;    7.439;  -14.730;  579.480
1116.638;    7.725;  -12.160;  684.600
1117.180;    8.586;  -14.320;  667.740
1117.721;    6.641;  -15.730;  568.580
1118.262;    8.330;  -13.480;  677.960
1118.804;    8.671;  -11.530;  637.340
1119.345;    6.203;  -13.540;  578.400
1119.886;    8.579;  -14.470;  704.040
1120.427;    7.780;  -13.030;  589.020
1120.969;    6.906;  -13.150;  597.920
1121.510;    5.930;  -13.940;  563.060
1122.051;    7.669;  -12.310;  723.580
1122.592;    5.974;  -13.870;  655.420
1123.133;    4.959;  -12.890;  547.940
1123.673;    7.379;  -13.300;  706.480
1124.214;    5.864;  -14.000;  612.460
1124.755;    7.963;  -13.210;  639.460
1125.296;    7.182;  -13.450;  627.320
1125.836;    7.322;  -12.610;  691.500
1126.377;    5.477;  -15.840;  599.660
1126.918;    8.019;  -11.830;  614.980
1127.458;    5.776;  -11.830;  622.220
1127.999;    6.486;  -11.490;  656.980
1128.539;    6.354;  -12.900;  694.240
1129.079;    6.163;  -14.910;  632.720
1129.620;    4.837;  -12.920;  558.100
1130.160;    4.164;  -14.640;  539.480
1130.700;    5.818;  -13.270;  640.840
1131.240;    7.281;  -14.110;  643.700
1131.781;    5.480;  -13.130;  619.680
1132.321;    5.136;  -15.220;  599.120
1132.861;    3.710;  -15.670;  564.200
1133.401;    4.282;  -13.970;  593.940
1133.941;    5.242;  -13.740;  626.280
1134.481;    4.145;  -13.200;  597.580
1135.020;    4.182;  -14.830;  609.160
1135.560;    4.905;  -14.590;  674.940
1136.100;    4.047;  -13.730;  501.160
1136.640;    3.289;  -15.240;  510.480
1137.179;    3.440;  -14.710;  537.960
1137.719;    4.669;  -14.090;  605.400
1138.258;    4.345;  -12.470;  587.360
1138.798;    4.788;  -12.580;  663.780
1139.337;    2.615;  -16.480;  482.840
1139.877;    5.038;  -13.970;  642.360
1140.416;    6.368;   -9.870;  878.060
1140.955;    2.650;  -14.860;  535.380
1141.494;    4.012;  -14.530;  669.280
1142.034;    3.143;  -13.940;  583.520
1142.573;    4.316;  -11.160;  646.280
1143.112;    2.683;  -15.050;  553.480
1143.651;    2.399;  -15.390;  536.480
1144.190;    4.821;  -12.990;  691.640
1144.729;    3.550;  -12.220;  607.420
1145.267;    3.481;  -14.020;  584.900
1145.806;    3.761;  -12.740;  637.040
1146.345;    3.192;  -14.810;  635.020
1146.884;    2.833;  -12.920;  622.500
1147.422;    2.374;  -13.930;  533.060
1147.961;    3.953;  -11.830;  708.460
1148.500;    3.928;  -12.710;  669.720
1149.038;    3.774;  -14.420;  632.500
1149.577;    3.035;  -13.920;  698.640
1150.115;    0.449;  -17.050;  452.280
1150.653;    2.719;  -14.890;  607.340
1151.192;    3.057;  -15.270;  552.920
1151.730;    2.610;  -13.160;  652.560
1152.268;    1.851;  -15.430;  589.520
1152.806;    2.258;  -15.880;  571.180
1153.344;    1.493;  -13.240;  577.640
1153.882;    2.142;  -13.010;  600.060
1154.421;    0.059;  -16.180;  470.620
1154.958;    1.828;  -13.880;  595.240
1155.496;    2.369;  -13.590;  645.280
1156.034;    1.644;  -11.910;  721.880
1156.572;    2.784;  -12.010;  667.060
1157.110;    0.065;  -16.250;  473.940
1157.647;    2.883;  -15.230;  676.960
1158.185;    0.957;  -13.770;  564.320
1158.723;   -0.411;  -15.300;  509.200
1159.260;    2.178;  -13.130;  701.700
1159.798;    1.764;  -11.300;  658.160
1160.335;    0.194;  -13.210;  631.820

