
Integration time [ms]:   3.882
Averaging Nr. [scans]: 1000
Smoothing Nr. [pixels]: 0
Data measured with spectrometer [name]: 7414430SP
Wave   ;Sample   ;Dark     ;Reference
[nm]   ;[counts] ;[counts] ;[counts] 

288.544;  139.488;    7.153;  793.890
289.143;  143.135;    8.402;  681.602
289.742;  144.393;    7.062;  828.814
290.341;  131.528;    0.191;  789.841
290.940;  121.511;    0.321;  730.702
291.538;  123.119;    3.811;  881.108
292.137;  121.208;   -3.438;  792.581
292.736;  124.587;   -2.809;  975.101
293.335;  121.033;   -5.239;  735.086
293.934;  121.950;   -4.939;  781.677
294.532;  123.686;   -2.199; 1031.958
295.131;  109.778;   -6.831;  834.394
295.730;  108.626;   -6.620;  809.588
296.328;  105.947;   -6.471;  783.442
296.927;  104.888;   -6.571;  779.652
297.525;  107.223;   -7.391;  781.236
298.124;   98.317;   -9.402;  654.009
298.722;  103.657;   -5.781;  761.933
299.321;  101.789;   -6.351;  708.597
299.919;   98.634;   -8.661;  751.918
300.518;   93.597;  -11.922;  689.338
301.116;   95.301;   -6.941;  691.381
301.715;   95.697;   -5.471;  730.222
302.313;   94.904;   -8.361;  704.943
302.911;   90.396;   -9.082;  733.830
303.509;   96.593;   -4.571;  925.627
304.108;   94.493;   -7.111;  760.383
304.706;   94.033;   -7.681;  801.664
305.304;   88.322;   -9.162;  796.707
305.902;   93.226;   -6.761;  784.484
306.500;   89.206;   -6.921;  728.200
307.098;   87.425;   -6.491;  746.560
307.696;   86.293;   -6.941;  780.432
308.294;   85.954;   -6.301;  731.359
308.892;   88.827;   -4.771;  759.769
309.490;   85.223;   -5.141;  712.161
310.088;   82.611;   -2.912;  788.444
310.686;   87.147;   -0.421;  821.749
311.284;   82.895;   -3.461;  766.040
311.882;   80.544;   -6.282;  731.225
312.480;   77.209;   -3.632;  697.167
313.078;   79.432;   -2.112;  808.331
313.675;   80.208;   -1.931;  691.600
314.273;   76.786;   -1.442;  797.837
314.871;   74.569;   -3.002;  589.829
315.468;   72.783;   -2.252;  652.090
316.066;   75.898;   -1.091;  694.427
316.664;   68.873;   -4.512;  656.351
317.261;   73.125;   -0.062;  910.128
317.859;   68.573;   -0.952;  768.735
318.456;   70.053;    0.719;  830.096
319.054;   65.384;   -4.002;  787.828
319.651;   64.648;   -4.972;  759.928
320.249;   63.925;   -1.162;  810.188
320.846;   61.229;   -2.651;  714.286
321.443;   59.710;   -3.832;  832.135
322.041;   56.303;   -4.312;  812.315
322.638;   55.249;   -3.872;  701.456
323.235;   56.029;   -4.361;  665.683
323.833;   53.683;   -4.821;  740.354
324.430;   49.113;   -6.971;  615.900
325.027;   50.802;   -4.361;  876.855
325.624;   50.748;   -5.581;  644.532
326.221;   47.233;   -6.601;  689.717
326.818;   46.708;   -7.301;  818.332
327.415;   48.931;   -6.180;  748.828
328.012;   48.292;   -5.920;  690.585
328.609;   46.641;   -8.390;  731.389
329.206;   45.768;   -6.121;  778.621
329.803;   45.996;   -5.241;  737.841
330.400;   46.882;   -7.420;  704.260
330.997;   47.573;   -5.931;  817.147
331.594;   45.431;   -5.641;  788.185
332.191;   51.006;   -6.451;  728.722
332.787;   54.211;   -4.651;  844.463
333.384;   52.747;   -5.472;  763.093
333.981;   48.560;   -6.303;  815.687
334.578;   52.024;   -5.892;  708.378
335.174;   54.371;   -4.102;  731.469
335.771;   54.287;   -8.053;  836.456
336.367;   52.227;   -7.363;  710.631
336.964;   54.859;   -6.243;  793.266
337.561;   53.906;   -5.653;  731.112
338.157;   49.638;   -7.074;  911.916
338.754;   47.552;   -5.474;  796.589
339.350;   46.432;   -5.624;  722.493
339.946;   49.197;   -5.054;  773.135
340.543;   40.580;   -6.695;  846.136
341.139;   35.121;   -6.215;  720.836
341.735;   34.591;   -5.746;  772.593
342.332;   32.589;   -7.335;  691.472
342.928;   32.313;   -4.835;  795.394
343.524;   26.866;   -4.586;  761.684
344.120;   24.304;   -3.946;  738.562
344.716;   27.344;   -4.835;  723.717
345.313;   24.262;   -5.325;  795.342
345.909;   19.651;   -6.535;  627.336
346.505;   22.692;   -4.725;  740.247
347.101;   23.487;   -4.164;  827.864
347.697;   22.785;   -5.274;  785.398
348.293;   17.570;   -7.145;  627.244
348.889;   18.112;   -4.364;  745.914
349.485;   17.882;   -6.404;  688.205
350.081;   18.667;   -7.534;  772.592
350.676;   14.118;   -6.995;  691.606
351.272;   17.801;   -3.544;  809.530
351.868;   18.355;   -5.324;  780.497
352.464;   14.885;   -7.204;  723.932
353.059;   11.155;   -6.894;  646.017
353.655;   15.179;   -3.754;  777.063
354.251;   15.670;   -6.143;  759.845
354.846;   10.584;   -9.464;  740.646
355.442;    8.256;   -7.555;  753.071
356.038;   10.177;   -5.474;  751.708
356.633;   10.004;   -5.914;  728.594
357.229;    8.211;   -8.944;  724.757
357.824;    7.222;   -6.794;  703.600
358.420;    5.927;   -5.754;  679.726
359.015;    6.677;   -5.664;  695.357
359.610;    7.606;   -8.004;  763.920
360.206;    0.810;   -8.815;  603.240
360.801;    4.092;   -8.834;  646.503
361.396;    7.088;   -6.274;  725.975
361.992;    1.894;   -8.574;  668.220
362.587;   -0.486;   -9.265;  670.160
363.182;    1.295;   -5.484;  689.631
363.777;    2.330;   -5.164;  738.242
364.372;    1.970;   -6.954;  737.314
364.967;   -1.721;   -7.065;  680.744
365.563;    3.349;   -5.684;  815.567
366.158;   -0.165;   -6.484;  685.161
366.753;    0.539;   -8.004;  649.263
367.348;   -0.889;  -10.114;  746.056
367.942;   -1.208;   -7.764;  697.298
368.537;   -1.774;   -4.554;  754.245
369.132;   -1.723;   -7.664;  703.428
369.727;   -6.073;   -8.905;  638.079
370.322;   -4.377;   -4.945;  580.186
370.917;   -5.009;   -7.095;  710.646
371.511;   -2.552;   -6.574;  861.834
372.106;   -5.734;   -6.515;  776.964
372.701;   -9.232;   -8.225;  585.988
373.296;   -3.008;   -4.494;  863.135
373.890;   -7.948;   -7.965;  647.840
374.485;  -10.383;   -9.745;  691.199
375.079;   -6.329;   -5.554;  738.685
375.674;   -4.194;   -4.724;  812.970
376.268;   -9.338;   -8.365;  691.759
376.863;  -15.339;   -8.126;  580.327
377.457;   -8.329;   -6.045;  662.490
378.052;   -9.781;   -6.835;  764.884
378.646;  -10.406;   -9.375;  741.167
379.240;  -11.323;   -6.185;  721.176
379.835;  -10.931;   -6.135;  636.978
380.429;  -12.349;   -8.365;  562.557
381.023;  -12.158;   -7.935;  779.205
381.617;  -14.331;   -8.325;  680.106
382.212;  -11.605;   -7.405;  685.303
382.806;  -10.450;   -4.155;  760.690
383.400;  -14.753;   -8.945;  672.281
383.994;  -15.599;   -8.365;  664.870
384.588;  -11.277;   -7.824;  697.701
385.182;   -9.629;   -7.984;  726.624
385.776;  -11.307;  -10.404;  706.875
386.370;  -15.003;   -7.335;  681.968
386.964;  -13.738;   -7.485;  684.155
387.558;  -11.682;   -8.174;  598.360
388.152;  -15.686;  -10.415;  681.959
388.745;  -13.332;   -9.595;  814.707
389.339;  -11.592;   -6.454;  747.642
389.933;  -10.593;   -5.804;  695.370
390.527;  -12.212;   -6.854;  859.029
391.120;  -18.175;   -7.665;  595.318
391.714;  -15.317;   -7.245;  711.633
392.308;  -11.388;   -4.514;  780.253
392.901;  -16.200;   -7.935;  642.460
393.495;  -17.593;   -8.585;  595.414
394.089;  -14.379;   -5.245;  760.452
394.682;  -16.081;   -6.305;  697.188
395.275;  -16.611;   -9.335;  719.927
395.869;  -17.878;   -7.375;  667.314
396.462;  -16.455;   -7.055;  616.609
397.056;  -12.266;   -5.434;  776.621
397.649;  -16.757;   -9.525;  731.575
398.242;  -14.230;   -7.574;  712.645
398.836;  -12.844;   -5.134;  766.408
399.429;  -14.393;   -6.544;  631.041
400.022;  -17.240;   -9.215;  665.902
400.615;  -15.038;   -8.105;  805.609
401.208;  -13.870;   -7.614;  691.451
401.802;  -15.692;   -8.085;  699.329
402.395;  -17.175;   -9.575;  683.502
402.988;  -17.763;   -9.285;  696.627
403.581;  -14.602;   -7.514;  646.878
404.174;  -11.767;   -6.404;  686.568
404.767;  -16.201;   -8.775;  638.583
405.360;  -18.449;   -7.415;  621.445
405.953;  -12.463;   -5.624;  759.034
406.545;  -11.785;   -6.474;  725.342
407.138;  -16.219;   -8.445;  618.350
407.731;  -15.263;  -10.044;  613.303
408.324;  -10.852;   -8.484;  660.554
408.917;  -11.622;   -7.624;  681.864
409.509;  -13.700;   -8.304;  740.396
410.102;  -15.806;   -8.495;  643.948
410.695;  -10.100;   -7.824;  665.758
411.287;  -10.322;   -7.754;  599.821
411.880;  -11.427;   -9.294;  585.421
412.472;  -14.718;   -8.814;  613.092
413.065;  -11.704;   -6.674;  629.408
413.657;   -9.515;   -9.664;  576.678
414.250;   -9.872;  -10.264;  646.681
414.842;  -11.747;   -8.664;  676.353
415.434;   -9.457;   -8.584;  570.463
416.027;   -5.250;   -9.423;  652.196
416.619;   -6.388;  -10.764;  713.400
417.211;   -7.887;   -7.404;  599.352
417.804;   -4.492;   -7.383;  628.499
418.396;   -8.034;   -8.334;  607.643
418.988;   -5.718;   -9.633;  659.238
419.580;   -9.061;  -10.554;  568.276
420.172;   -7.308;   -8.683;  536.196
420.764;   -1.825;   -9.713;  672.482
421.356;   -3.631;  -11.303;  636.898
421.948;   -5.108;   -8.453;  677.661
422.540;    0.573;   -5.793;  680.027
423.132;   -0.453;   -7.162;  600.641
423.724;   -4.774;   -7.933;  561.267
424.316;   -2.367;   -9.083;  621.345
424.908;    1.315;   -8.392;  591.517
425.500;    2.906;   -8.062;  647.978
426.092;    2.695;   -9.692;  648.268
426.683;    2.007;   -8.223;  684.836
427.275;    4.512;   -8.602;  641.471
427.867;    6.197;   -8.382;  668.948
428.458;    5.995;  -10.472;  732.344
429.050;    4.979;   -9.112;  680.749
429.642;    7.281;   -7.752;  743.124
430.233;    7.791;   -8.832;  569.356
430.825;    8.779;   -8.292;  724.809
431.416;    6.108;   -7.522;  698.241
432.008;    9.617;   -9.262;  651.723
432.599;   11.131;   -6.441;  656.073
433.190;    7.239;   -9.222;  637.670
433.782;    6.324;  -11.832;  590.395
434.373;   14.893;   -7.121;  884.765
434.964;   12.983;   -9.141;  602.920
435.556;   10.309;   -9.332;  634.537
436.147;   13.055;   -8.892;  758.490
436.738;   13.574;   -8.151;  701.099
437.329;   18.841;   -8.281;  721.723
437.920;   12.041;   -9.062;  666.688
438.511;   10.619;  -11.182;  564.526
439.103;   18.026;   -7.461;  623.998
439.694;   20.933;   -8.541;  681.583
440.285;   20.469;   -7.351;  764.432
440.876;   19.749;   -8.201;  845.738
441.466;   18.095;  -10.381;  575.162
442.057;   23.873;   -7.620;  665.814
442.648;   22.117;   -8.461;  746.255
443.239;   20.720;   -8.991;  620.477
443.830;   25.775;   -7.910;  704.958
444.421;   27.516;   -7.340;  655.474
445.011;   24.106;   -8.981;  693.619
445.602;   23.290;   -9.341;  743.126
446.193;   25.450;  -11.390;  488.117
446.783;   30.706;  -11.240;  640.397
447.374;   24.943;   -8.471;  692.759
447.964;   25.688;   -8.471;  713.770
448.555;   34.402;   -6.590;  822.742
449.145;   30.399;   -8.200;  662.853
449.736;   32.025;  -11.040;  803.179
450.326;   31.770;   -9.640;  713.626
450.917;   36.148;   -9.480;  675.324
451.507;   36.176;   -8.020;  600.661
452.097;   35.989;  -10.210;  746.267
452.688;   37.439;   -7.810;  742.160
453.278;   36.812;   -9.360;  566.840
453.868;   42.365;   -8.669;  793.550
454.458;   38.951;  -10.950;  651.141
455.048;   39.685;  -10.200;  711.783
455.639;   40.984;   -9.369;  567.096
456.229;   44.623;   -7.739;  710.694
456.819;   46.004;   -8.939;  751.158
457.409;   46.384;   -7.169;  773.993
457.999;   49.046;   -7.779;  737.505
458.589;   50.151;   -7.039;  686.606
459.179;   49.785;   -9.019;  717.658
459.769;   46.916;   -8.909;  627.099
460.358;   52.355;   -8.659;  797.262
460.948;   52.010;   -8.209;  689.503
461.538;   54.140;   -9.879;  660.677
462.128;   51.506;   -9.379;  664.934
462.717;   58.887;   -9.158;  710.326
463.307;   61.380;   -8.638;  705.846
463.897;   56.909;   -8.869;  656.942
464.486;   56.748;   -7.409;  837.128
465.076;   61.363;   -9.618;  733.776
465.666;   64.362;   -7.578;  652.900
466.255;   62.200;   -9.369;  785.651
466.845;   60.867;  -10.049;  666.749
467.434;   64.745;   -8.168;  725.873
468.023;   65.288;   -9.188;  658.357
468.613;   62.537;   -9.849;  713.946
469.202;   67.802;  -12.958;  646.507
469.791;   71.846;   -9.488;  737.811
470.381;   73.692;   -6.468;  742.813
470.970;   72.501;  -10.248;  711.099
471.559;   72.159;  -11.428;  733.291
472.148;   75.428;   -9.738;  675.737
472.738;   78.232;   -7.877;  765.466
473.327;   77.432;  -11.868;  637.529
473.916;   77.915;   -8.578;  737.446
474.505;   81.289;  -11.137;  751.703
475.094;   84.908;   -9.407;  806.570
475.683;   84.413;   -9.977;  797.699
476.272;   84.928;  -10.807;  730.632
476.861;   88.069;  -11.017;  706.754
477.449;   94.933;  -10.316;  728.487
478.038;   88.837;  -10.187;  692.513
478.627;   89.413;  -12.458;  714.852
479.216;   97.198;  -10.127;  769.441
479.805;  100.204;   -6.256;  783.375
480.393;   99.577;   -8.737; 1008.945
480.982;   97.390;   -9.087;  874.501
481.571;  103.621;   -7.806;  858.333
482.159;  104.990;  -10.596;  705.386
482.748;  104.037;  -11.507;  821.385
483.336;  108.841;   -8.366;  858.209
483.925;  109.403;   -7.497;  774.373
484.513;  115.949;   -8.326;  758.962
485.102;  112.386;  -10.277;  810.965
485.690;  121.467;   -8.256; 1011.050
486.278;  123.526;   -7.146;  979.329
486.867;  124.072;   -7.986;  809.662
487.455;  125.741;   -9.926;  898.229
488.043;  128.090;  -10.026;  748.361
488.631;  136.483;   -7.226; 1005.079
489.220;  140.207;   -8.696;  908.626
489.808;  139.048;  -12.276;  741.415
490.396;  147.938;   -9.386;  914.645
490.984;  152.611;   -8.506;  830.161
491.572;  163.229;   -8.226;  940.315
492.160;  168.319;   -9.836;  919.081
492.748;  179.841;  -10.316;  884.341
493.336;  200.352;   -7.146; 1019.693
493.924;  224.888;   -7.965;  958.077
494.512;  255.202;  -10.316; 1066.638
495.100;  291.895;  -10.186; 1103.280
495.687;  352.917;   -7.805; 1206.373
496.275;  419.537;   -9.686; 1150.796
496.863;  506.864;  -11.566; 1281.171
497.451;  588.320;  -11.406; 1386.805
498.038;  699.448;   -8.235; 1556.729
498.626;  843.110;   -7.485; 1741.407
499.214; 1017.161;   -8.646; 2016.609
499.801; 1291.999;   -9.936; 2220.633
500.389; 1529.052;   -8.056; 2312.494
500.976; 1684.255;   -6.166; 2744.849
501.564; 1895.279;   -9.126; 3148.565
502.151; 2223.170;  -12.456; 3515.999
502.738; 2610.309;  -10.056; 3971.274
503.326; 3064.755;  -10.605; 4403.796
503.913; 3520.002;  -10.576; 5161.749
504.500; 4032.807;   -9.056; 5986.420
505.088; 4606.538;  -10.136; 6381.201
505.675; 5340.648;   -9.075; 6925.547
506.262; 5850.986;  -11.346; 7619.060
506.849; 6816.269;   -9.376; 8733.969
507.436; 7655.467;   -7.365; 9790.121
508.023; 7487.358;   -8.686; 9985.472
508.610; 7628.706;   -8.846;10434.618
509.197; 8419.875;   -9.077;11198.435
509.784; 9974.868;  -10.246;12391.194
510.371;11315.010;   -9.825;13603.713
510.958;12366.725;  -10.896;14426.586
511.545;13020.987;   -9.006;15243.775
512.132;12743.444;   -8.765;15945.876
512.719;13330.702;   -8.286;16340.369
513.305;15423.484;   -9.256;18011.766
513.892;17292.074;  -11.106;19754.971
514.479;20380.143;   -8.576;20967.805
515.066;23639.936;   -9.046;22299.793
515.652;24353.813;  -10.676;22908.660
516.239;24722.498;  -10.166;23798.875
516.825;24291.549;  -11.266;25567.275
517.412;23462.242;   -7.446;28154.959
517.998;22920.658;  -10.916;28344.111
518.585;22543.113;   -9.166;27134.219
519.171;21925.080;  -10.135;27268.576
519.758;22819.428;   -8.806;28964.129
520.344;25865.205;   -6.716;30664.494
520.930;28515.416;  -10.166;32550.605
521.516;28535.652;   -9.615;35422.895
522.103;30490.230;   -8.656;38280.004
522.689;31161.699;   -9.646;37835.117
523.275;30527.068;  -10.786;37288.613
523.861;33297.051;   -9.266;37281.395
524.447;34630.734;   -8.285;37846.949
525.033;33331.953;   -9.426;38321.949
525.619;32631.939;   -9.836;38579.285
526.205;35071.676;   -8.136;40622.875
526.791;36621.371;   -9.986;42258.836
527.377;36297.027;   -8.236;42966.902
527.963;35326.160;  -12.117;42018.949
528.549;33285.027;   -8.376;42476.828
529.135;33602.961;   -8.696;41854.852
529.721;35382.043;   -9.686;41237.711
530.306;36061.555;   -8.616;41259.445
530.892;35794.227;   -9.396;41506.047
531.478;36656.254;   -9.926;43559.613
532.063;39156.465;  -10.236;47695.563
532.649;42307.871;   -8.257;50808.324
533.235;44349.906;  -11.476;51787.500
533.820;43886.906;   -8.156;52145.035
534.406;43882.406;  -12.257;51133.488
534.991;38912.375;   -8.686;49996.805
535.576;33079.023;   -9.426;48882.852
536.162;30032.416;   -8.436;46942.285
536.747;31502.311;  -10.957;45711.746
537.333;35285.793;  -13.147;48510.180
537.918;41276.938;   -9.027;50439.891
538.503;46348.496;   -8.256;50863.711
539.088;48139.629;  -10.576;50906.922
539.673;49177.938;  -10.907;52621.965
540.259;50074.215;   -9.126;52368.094
540.844;49930.895;   -9.026;50879.109
541.429;49463.234;   -9.597;52077.777
542.014;51910.543;  -11.447;52716.695
542.599;53370.898;   -9.236;52363.281
543.184;52783.270;  -12.267;53187.137
543.769;53606.703;  -10.367;54697.605
544.354;53668.148;  -10.887;53913.914
544.938;47496.281;  -11.687;49680.164
545.523;42812.133;   -8.286;47386.277
546.108;42902.742;   -9.317;49151.949
546.693;44081.453;  -10.187;51384.637
547.278;42574.383;   -9.926;51853.254
547.862;41615.668;   -9.196;51173.750
548.447;41016.129;   -9.657;51691.395
549.031;42457.309;   -9.127;52456.703
549.616;44610.090;  -10.836;52714.516
550.201;45567.703;   -8.507;52414.598
550.785;46544.488;  -10.537;52355.059
551.370;49435.160;  -11.727;54589.453
551.954;49839.691;   -9.457;58267.348
552.538;48558.426;   -8.147;59062.176
553.123;47961.746;   -9.397;58115.285
553.707;49393.750;   -9.558;56556.285
554.291;48717.867;   -9.417;56201.668
554.876;50570.777;   -7.627;55335.762
555.460;49556.922;  -10.457;54155.703
556.044;44619.336;  -10.078;53721.484
556.628;42987.184;   -9.407;53731.016
557.212;42094.547;   -7.957;54312.531
557.796;42235.488;  -11.327;53797.773
558.380;46245.902;  -10.868;56145.984
558.964;46374.910;   -9.637;57277.930
559.548;44073.695;   -8.807;56459.641
560.132;46496.965;  -10.187;54434.543
560.716;48252.625;   -9.868;54800.617
561.300;49624.203;  -10.217;57606.945
561.884;49848.867;   -4.947;58972.445
562.467;46766.895;   -9.588;57327.570
563.051;42235.797;  -11.138;54962.434
563.635;42555.262;   -9.358;52594.473
564.219;43428.402;   -9.797;50610.410
564.802;41834.766;   -9.918;49551.180
565.386;40523.738;  -10.838;48370.953
565.969;39553.988;   -8.037;48178.871
566.553;39034.469;   -5.667;49957.305
567.136;39358.090;   -8.258;50369.594
567.720;40527.133;  -11.278;49492.004
568.303;38671.809;   -9.028;50616.352
568.887;37264.672;   -7.508;50727.148
569.470;35967.113;  -11.068;51698.379
570.053;37937.164;  -10.028;52122.078
570.637;38743.332;  -11.077;52536.438
571.220;40410.586;   -8.747;51186.098
571.803;42748.992;   -8.868;51032.762
572.386;42998.984;  -10.608;49609.887
572.969;41910.188;  -10.548;48285.926
573.552;39758.316;   -7.898;47624.285
574.135;38931.441;   -9.918;45498.641
574.718;34831.402;  -10.328;41970.434
575.301;31954.756;   -9.548;41447.137
575.884;29078.111;   -8.768;40923.836
576.467;34954.000;   -9.858;45267.723
577.050;36299.391;  -11.018;48175.543
577.633;37667.848;  -10.048;47729.328
578.216;36534.980;  -10.268;47579.793
578.799;34470.840;  -11.808;47820.996
579.381;33647.895;   -7.338;48115.551
579.964;35067.844;   -9.728;47333.766
580.547;35867.098;   -8.928;46668.969
581.129;35872.055;   -9.149;44466.141
581.712;37467.914;  -11.359;44164.922
582.294;37936.832;  -10.738;46477.855
582.877;36489.602;   -8.788;48244.254
583.459;35214.461;   -9.859;47437.895
584.042;35862.969;   -9.649;46943.219
584.624;35832.402;  -10.529;46792.227
585.206;34164.625;  -10.298;46557.250
585.789;32496.789;  -11.029;45793.773
586.371;32613.934;   -9.359;43836.391
586.953;32978.195;   -8.799;42972.492
587.536;33190.230;   -8.928;42487.211
588.118;32695.986;   -9.180;42086.414
588.700;31496.145;  -10.519;43389.930
589.282;30056.979;   -8.098;43646.039
589.864;30207.674;   -8.139;43438.109
590.446;31976.729;  -10.509;43151.926
591.028;34756.523;  -11.119;42781.867
591.610;35193.332;  -10.019;42839.098
592.192;33616.770;   -8.838;42820.402
592.774;31507.279;  -11.549;40724.277
593.356;29331.988;  -11.609;39874.789
593.937;30296.936;  -10.019;39980.648
594.519;32922.836;   -7.839;42069.633
595.101;33939.996;  -10.779;42976.031
595.683;34944.977;  -10.049;44084.441
596.264;34790.734;   -9.969;43478.797
596.846;33448.070;   -9.699;43803.672
597.427;32690.787;  -10.970;42986.934
598.009;33868.660;  -13.090;42832.219
598.591;34264.281;   -9.509;42580.086
599.172;32501.178;   -9.019;43061.805
599.753;29681.127;  -13.310;41691.469
600.335;29216.697;  -11.010;40692.520
600.916;30118.473;  -10.309;39982.422
601.498;30843.721;   -8.209;40318.617
602.079;31521.969;  -11.440;40670.609
602.660;32742.604;   -8.690;41450.898
603.241;33821.137;  -12.759;41137.738
603.823;32142.686;  -10.409;38868.797
604.404;32472.385;  -11.790;38182.785
604.985;30735.129;  -10.280;38078.047
605.566;30906.570;   -8.059;38056.633
606.147;31686.814;   -8.960;37020.418
606.728;31483.119;  -10.710;37883.359
607.309;30614.699;  -12.760;38748.273
607.890;28804.135;   -9.959;38850.230
608.471;26789.508;   -9.780;37457.918
609.051;28177.201;   -8.940;36066.457
609.632;31352.477;  -12.070;35991.074
610.213;33537.023;   -9.610;37402.641
610.794;34135.328;   -8.750;38383.363
611.374;33702.375;  -11.100;40562.387
611.955;34167.734;  -12.200;38533.727
612.536;33484.664;  -10.410;36951.789
613.116;33205.703;  -10.010;37197.891
613.697;32470.863;  -10.480;38411.125
614.277;30733.494;  -12.751;38673.938
614.858;30327.623;  -11.600;37075.863
615.438;29539.502;   -8.190;35092.906
616.019;28379.230;   -8.941;33666.301
616.599;29154.221;  -13.540;34189.023
617.179;29156.139;  -10.890;36952.047
617.760;29907.162;   -7.610;39582.574
618.340;29506.486;  -14.441;38943.977
618.920;29158.457;   -9.180;37594.156
619.500;29453.219;  -11.881;37866.938
620.080;31260.457;   -9.870;37869.043
620.660;31379.188;  -13.211;36868.617
621.241;30923.164;  -11.921;36352.309
621.821;30162.496;  -10.271;35459.520
622.401;29346.582;   -8.200;35207.414
622.980;29781.592;  -11.141;35980.422
623.560;31257.494;  -14.321;37351.328
624.140;31277.320;   -9.360;34388.582
624.720;27717.508;   -7.481;32368.764
625.300;24596.953;  -12.730;32638.629
625.880;29191.914;  -11.441;34599.035
626.459;32530.865;  -10.971;36831.738
627.039;33804.777;   -9.011;38299.098
627.619;33723.246;   -8.521;38289.574
628.198;34646.621;   -9.861;37220.695
628.778;34681.027;   -8.841;37632.563
629.357;33538.863;   -9.891;38003.012
629.937;31530.072;  -11.871;38402.039
630.516;30014.350;  -10.641;37868.801
631.096;32134.279;  -11.391;35760.410
631.675;33618.219;   -6.622;35225.219
632.254;31715.176;  -13.002;35130.289
632.834;30299.441;  -11.622;35794.570
633.413;32549.891;   -8.321;35788.922
633.992;31241.898;   -7.732;34532.863
634.571;30079.027;  -10.992;33590.113
635.151;31452.318;  -10.422;34943.863
635.730;31526.432;  -11.511;35352.523
636.309;30541.666;   -7.901;35366.605
636.888;29918.123;  -11.452;36165.637
637.467;30370.166;  -10.672;37515.902
638.046;30222.955;   -9.301;39288.695
638.625;30814.230;  -11.452;38279.699
639.204;32122.340;  -12.262;37741.598
639.782;31698.742;  -11.892;38364.551
640.361;30381.715;  -11.411;36740.621
640.940;27234.428;  -11.501;34950.082
641.519;27572.553;  -10.921;34137.398
642.097;30734.703;  -10.101;35654.258
642.676;31373.529;  -10.821;35637.957
643.255;33664.234;   -8.631;36567.074
643.833;36149.918;  -11.411;37809.434
644.412;37477.289;  -12.021;37337.293
644.990;36677.227;  -12.271;37018.531
645.569;35549.273;   -9.741;36518.469
646.147;34984.125;   -9.051;36186.430
646.726;32926.820;  -13.861;36267.688
647.304;32311.646;   -9.461;36647.625
647.882;31358.855;  -13.171;39286.742
648.461;31620.367;  -11.911;39157.703
649.039;32054.066;   -9.541;35412.883
649.617;34257.379;   -8.901;34744.918
650.195;32860.684;   -8.591;35403.098
650.773;30896.385;  -13.031;35053.797
651.352;28662.365;  -12.211;33756.816
651.930;26031.645;  -11.361;31868.773
652.508;23334.762;   -8.601;33121.551
653.086;26698.408;   -9.991;33564.793
653.663;31163.641;  -11.931;34054.668
654.241;33384.074;  -10.821;35693.309
654.819;34142.863;   -9.341;36422.906
655.397;31777.658;  -10.851;38213.484
655.975;29665.473;  -11.461;39507.625
656.553;30402.105;   -8.841;39498.223
657.130;30005.535;  -10.371;40395.480
657.708;28288.811;  -11.071;39242.020
658.286;28258.590;  -11.141;38920.020
658.863;30761.932;  -10.861;40202.898
659.441;36354.598;  -11.181;39677.938
660.018;37699.402;  -10.851;40413.355
660.596;36272.254;  -12.571;39931.414
661.173;37100.207;  -12.141;39604.531
661.750;33935.992;  -11.571;39700.070
662.328;30810.838;  -10.780;39292.809
662.905;29978.213;  -10.750;38235.648
663.482;26919.971;  -11.320;36212.305
664.060;25544.689;  -10.160;35944.945
664.637;30528.986;  -13.120;35170.785
665.214;33236.543;  -11.500;34197.523
665.791;31900.660;  -12.430;34549.520
666.368;29989.488;   -9.840;35118.578
666.945;28795.334;  -11.290;36019.418
667.522;29010.318;  -13.540;36048.438
668.099;29553.770;  -10.250;36243.914
668.676;28608.748;  -11.270;35958.875
669.253;27980.783;   -8.210;37384.730
669.830;26540.928;   -9.710;36779.629
670.407;26027.309;   -9.700;35231.289
670.984;26041.061;   -9.190;35544.270
671.560;24943.779;   -9.560;35466.867
672.137;24399.434;  -11.820;34280.863
672.714;27095.719;  -12.460;34632.863
673.290;31524.164;  -10.940;35135.422
673.867;32712.316;  -10.510;36114.480
674.443;30726.318;  -12.110;36152.859
675.020;31032.344;  -11.760;35327.238
675.596;32289.146;   -9.380;35795.176
676.173;31805.143;  -11.120;35430.355
676.749;30970.318;  -13.390;33549.516
677.326;29581.785;  -12.600;32210.012
677.902;28397.191;  -10.830;32068.871
678.478;27439.268;  -12.400;32583.891
679.054;28377.313;   -8.610;32088.928
679.631;29879.775;  -11.640;30978.848
680.207;30927.879;   -8.140;33160.887
680.783;30936.211;  -12.300;35570.363
681.359;29552.914;  -10.910;36125.184
681.935;28268.701;  -11.040;35240.922
682.511;28880.934;  -11.130;34429.961
683.087;29084.207;  -11.080;34463.680
683.663;30527.402;  -10.530;34648.898
684.239;31003.820;  -12.120;34546.457
684.815;30115.816;   -8.870;35586.375
685.390;28865.047;   -8.940;35821.895
685.966;28127.076;  -12.109;35085.871
686.542;27119.498;  -13.539;34198.230
687.118;26098.396;  -10.379;32847.707
687.693;26623.744;  -10.189;32794.027
688.269;26152.688;  -12.939;33072.367
688.844;24622.664;   -8.679;33141.664
689.420;25545.854;  -10.919;33965.742
689.995;26515.002;   -7.489;34655.523
690.571;25697.648;  -12.199;33576.742
691.146;25709.857;   -8.979;32657.219
691.722;27260.105;   -9.119;32526.979
692.297;27592.199;  -10.519;33014.617
692.872;27525.420;  -10.629;34012.254
693.448;27584.738;  -12.119;34237.434
694.023;26605.184;   -8.219;34142.672
694.598;25154.094;  -13.209;34132.031
695.173;23927.342;  -11.879;34205.250
695.748;24338.223;  -12.039;32882.488
696.323;25697.896;  -11.779;32864.906
696.898;26371.260;  -10.219;33170.004
697.473;28099.408;  -13.639;32432.984
698.048;28780.016;  -11.239;31649.303
698.623;30644.459;  -10.859;30778.141
699.198;32648.756;  -13.379;31140.119
699.773;32849.848;  -13.409;31764.299
700.348;31684.842;  -12.329;31780.816
700.922;31783.082;   -8.749;32046.375
701.497;31817.877;  -12.449;32603.574
702.072;30540.732;   -8.879;34799.871
702.646;28714.389;  -10.719;35793.172
703.221;27612.504;   -8.469;35201.590
703.795;28547.447;  -11.389;34764.527
704.370;27971.771;  -12.499;34307.367
704.944;26368.781;  -11.449;33509.887
705.519;26080.500;  -10.659;31388.584
706.093;25158.627;  -12.909;31340.104
706.668;25241.178;  -13.509;32630.281
707.242;26205.727;  -10.049;32728.779
707.816;26415.127;  -10.629;32947.238
708.390;25856.826;  -11.829;33277.855
708.965;24272.863;  -11.159;33834.336
709.539;24530.350;  -11.069;33709.273
710.113;24500.602;  -10.908;33044.313
710.687;22515.518;   -9.488;31953.992
711.261;22509.754;  -13.068;30505.949
711.835;24757.973;  -12.748;30262.369
712.409;27034.736;  -10.678;31254.447
712.983;26818.924;  -11.658;32754.986
713.557;26214.412;  -13.718;34018.824
714.131;26673.143;  -13.388;34579.625
714.704;29294.502;   -9.818;33890.262
715.278;31495.816;  -11.818;33531.102
715.852;31493.277;  -11.328;33601.660
716.425;32222.100;   -9.118;33515.117
716.999;32810.125;  -10.188;33185.555
717.573;32064.936;   -9.808;33905.996
718.146;30726.961;  -11.478;35199.293
718.720;29539.855;  -10.998;35060.551
719.293;29084.684;   -9.508;34973.230
719.867;30039.096;  -12.138;36394.449
720.440;29093.273;  -11.288;36663.008
721.013;30267.479;  -11.428;35102.426
721.587;31824.662;  -11.698;33985.266
722.160;33648.504;  -11.608;33524.965
722.733;34781.371;  -11.428;32987.043
723.306;31854.078;  -12.518;33066.301
723.880;29933.559;   -7.408;33399.500
724.453;29483.830;  -11.048;33468.297
725.026;28368.498;  -11.678;33816.637
725.599;26866.111;  -10.978;32797.996
726.172;25116.918;   -8.838;33187.434
726.745;24762.242;  -11.438;35136.613
727.318;25958.313;   -9.828;35751.730
727.891;26656.180;  -10.868;35890.430
728.463;26990.152;  -11.348;34822.090
729.036;26182.439;  -11.608;32895.086
729.609;25786.082;  -14.738;31823.225
730.182;25890.375;   -8.448;31445.283
730.754;26447.324;  -11.228;32373.223
731.327;26203.721;  -12.018;33676.820
731.900;27409.918;  -13.748;33417.000
732.472;28363.023;  -10.928;31978.498
733.045;28660.658;   -9.478;30368.777
733.617;27468.842;  -12.967;30574.215
734.190;26674.904;  -11.707;31280.975
734.762;25953.803;  -11.067;31674.412
735.334;25214.879;  -10.587;31247.291
735.907;24401.283;  -11.947;29876.211
736.479;24675.762;  -11.667;29808.488
737.051;25833.006;  -10.187;30233.547
737.623;26122.012;   -6.887;31469.086
738.195;27194.193;  -12.117;31784.225
738.768;29489.461;  -14.077;32120.523
739.340;29378.975;  -12.207;32094.342
739.912;27279.867;   -8.977;31312.680
740.484;25973.510;  -11.017;31946.238
741.056;27789.170;  -13.517;32984.059
741.628;30419.650;  -11.507;33897.715
742.199;30664.270;   -7.597;33213.016
742.771;30047.273;  -12.227;31369.113
743.343;28489.414;  -12.427;31865.473
743.915;26358.709;   -9.827;32388.631
744.487;25276.824;  -10.007;31079.568
745.058;24856.043;  -11.887;30570.107
745.630;24080.939;  -10.787;29970.127
746.201;23722.277;  -10.887;29186.766
746.773;25354.074;   -9.707;28805.723
747.344;26719.066;  -11.137;29591.223
747.916;26003.992;  -11.887;31412.201
748.487;25052.762;   -9.707;32194.898
749.059;24657.736;  -10.027;32533.719
749.630;24241.947;  -11.787;32158.518
750.201;23348.107;  -12.767;30855.395
750.773;21405.441;  -11.497;28622.555
751.344;21821.357;   -9.937;28405.732
751.915;21719.479;  -11.567;28461.551
752.486;19534.350;  -13.267;27842.850
753.057;18421.506;  -10.627;27845.008
753.628;18377.676;  -11.657;27728.107
754.199;20367.203;  -12.097;27381.086
754.770;21827.549;  -11.447;25882.203
755.341;22545.184;  -11.997;25886.184
755.912;21281.820;  -10.207;26050.861
756.483;19202.324;  -10.937;26798.779
757.054;19352.373;  -11.527;27048.238
757.625;19735.996;  -12.886;26294.838
758.195;19191.563;  -11.226;26142.076
758.766;19669.750;  -12.366;26392.234
759.337;18573.678;  -11.946;26334.594
759.907;18096.084;  -13.856;27579.652
760.478;19390.441;   -9.606;28352.770
761.048;21121.668;  -11.606;27325.088
761.619;21876.297;  -11.036;26460.428
762.189;20458.145;  -12.206;26029.826
762.760;19365.148;   -9.666;26430.145
763.330;19949.016;   -9.796;26670.902
763.900;19831.631;  -10.896;26603.021
764.471;19496.184;  -11.726;25542.740
765.041;20353.258;   -9.656;24358.459
765.611;20948.930;  -11.276;23991.297
766.181;20618.836;  -12.116;24470.236
766.751;20292.729;  -12.376;24845.975
767.321;20209.514;  -11.626;24533.633
767.891;19768.555;  -10.426;24916.492
768.461;18177.137;  -13.456;24776.771
769.031;16148.308;  -11.616;24757.988
769.601;15304.366;  -11.356;24181.088
770.171;15053.326;  -11.586;23670.387
770.741;15349.012;  -12.696;22960.045
771.311;17048.783;  -10.226;22917.523
771.880;18216.324;  -11.146;23562.941
772.450;18654.645;  -11.716;24216.500
773.020;18143.832;  -13.226;24140.398
773.589;16669.150;  -12.586;24414.857
774.159;16461.930;  -10.246;23858.717
774.729;16020.583;  -11.586;22942.135
775.298;15831.693;  -15.926;22324.033
775.867;15868.867;  -10.426;21140.313
776.437;15641.762;  -11.416;20838.092
777.006;13801.271;  -12.766;20599.510
777.576;13514.573;  -13.666;20508.809
778.145;15000.733;  -10.066;20732.947
778.714;15453.640;  -10.276;21062.465
779.283;14917.982;  -12.086;20949.664
779.853;14622.543;  -14.016;20508.623
780.422;14421.925;  -12.376;20649.082
780.991;13867.846;   -9.246;21527.520
781.560;13624.884;   -9.775;22632.658
782.129;13852.882;  -12.495;23048.277
782.698;13863.343;  -11.775;23438.555
783.267;13636.497;  -10.065;23267.734
783.836;14382.859;  -12.455;22415.133
784.404;15016.780;  -13.385;20443.152
784.973;15121.897;  -11.045;19699.150
785.542;14600.628;   -9.505;19763.828
786.111;13774.087;   -9.385;20341.408
786.679;13564.785;  -13.475;20207.967
787.248;13449.134;  -11.245;19516.465
787.817;12044.199;  -12.485;18900.363
788.385;10566.690;  -11.165;17879.121
788.954;11093.403;  -11.755;17658.301
789.522;12029.075;   -9.625;17788.879
790.090;12240.699;   -9.665;18118.277
790.659;11468.628;   -9.295;18338.736
791.227;11319.325;  -12.175;18508.615
791.795;12036.499;  -12.145;17898.254
792.364;12234.403;  -11.575;17295.133
792.932;11714.113;  -11.085;16822.051
793.500;11400.704;  -11.345;17040.148
794.068;11097.660;  -12.565;17179.787
794.636;11598.004;  -12.105;16664.246
795.204;12682.155;  -11.995;16524.545
795.772;12811.341;  -12.615;17274.564
796.340;12331.247;  -12.425;17891.002
796.908;11868.974;  -11.455;17648.561
797.476;10951.229;  -12.165;17064.080
798.044; 9769.966;  -15.795;16672.777
798.612; 9200.580;  -10.985;17023.996
799.180; 9660.354;  -12.055;16561.615
799.747;10041.330;  -12.525;15962.773
800.315; 9188.420;  -14.765;15296.992
800.883; 7990.361;  -12.435;14801.771
801.450; 7870.412;  -11.295;14534.430
802.018; 8378.368;  -11.185;14173.248
802.585; 8552.104;  -11.625;14029.547
803.153; 7844.646;  -10.665;13836.846
803.720; 7308.627;  -10.275;13567.324
804.287; 7538.265;  -12.865;13360.622
804.855; 7893.263;  -12.324;13681.981
805.422; 7846.560;  -11.574;13536.560
805.989; 7488.172;  -11.004;13355.958
806.556; 7705.377;  -12.214;13747.896
807.124; 8131.878;  -13.304;13987.376
807.691; 8082.063;  -12.034;14038.674
808.258; 7910.979;  -11.014;14120.152
808.825; 7844.849;  -11.804;13860.111
809.392; 7637.862;  -11.544;13268.790
809.959; 7430.051;  -14.954;12680.389
810.526; 7736.667;  -10.214;12427.308
811.093; 7817.046;  -10.754;12030.105
811.659; 7470.406;  -12.194;11653.664
812.226; 6689.767;   -9.194;11637.183
812.793; 6409.034;   -9.644;11611.521
813.360; 7050.305;  -11.544;11885.181
813.926; 8112.750;  -12.814;12770.539
814.493; 8253.177;  -11.524;12677.638
815.060; 8034.377;  -12.254;11974.336
815.626; 7919.108;  -12.114;11594.715
816.193; 7468.026;  -11.994;11579.474
816.759; 6884.313;  -11.464;11666.972
817.325; 6410.614;  -10.444;11325.530
817.892; 6113.360;  -11.124;11105.369
818.458; 6092.704;  -11.864;10843.928
819.024; 6512.481;  -10.634;10714.406
819.591; 6705.815;  -10.554;10469.165
820.157; 6809.632;  -13.334;10235.523
820.723; 6917.938;  -13.044;10847.563
821.289; 6854.317;   -9.664;11040.980
821.855; 6906.865;  -10.994;10357.100
822.421; 7155.541;  -11.784; 9978.918
822.987; 7332.207;  -12.554; 9754.177
823.553; 7342.056;  -12.554;10065.755
824.119; 7042.987;   -8.544;10036.294
824.685; 6357.973;  -12.144;10029.192
825.251; 6038.281;  -12.754;10199.230
825.816; 5710.033;  -11.354; 9820.189
826.382; 5312.656;  -11.004; 9297.248
826.948; 5205.406;  -11.004; 9381.347
827.513; 5442.491;  -12.474; 9450.726
828.079; 5606.337;  -13.084; 9472.444
828.645; 5747.955;  -10.813; 9292.643
829.210; 5550.582;  -11.593; 9065.341
829.776; 5509.834;  -12.633; 9132.620
830.341; 5838.566;  -10.473; 9092.878
830.906; 5845.664;   -8.763; 9078.557
831.472; 5148.948;  -13.453; 8534.535
832.037; 4117.132;  -12.173; 8677.874
832.602; 3759.252;  -14.093; 8628.692
833.167; 4147.896;  -13.593; 8879.031
833.733; 4835.280;  -10.793; 9189.790
834.298; 5247.407;  -14.783; 9052.608
834.863; 4887.755;  -11.023; 8895.087
835.428; 4521.751;  -11.113; 8824.266
835.993; 4832.402;   -9.983; 8845.385
836.558; 5115.880;  -13.003; 8888.563
837.123; 5004.264;  -10.733; 8966.582
837.688; 4620.422;   -9.683; 8617.860
838.253; 4352.155;  -12.253; 8590.699
838.817; 4536.233;  -11.643; 8443.797
839.382; 4792.265;  -11.953; 8799.356
839.947; 4801.751;  -11.443; 8810.595
840.511; 4631.500;  -10.843; 8796.394
841.076; 4577.649;  -13.533; 8347.231
841.641; 4721.872;  -11.743; 8224.330
842.205; 4635.431;  -10.013; 8223.349
842.770; 4459.342;  -11.023; 8622.107
843.334; 4431.875;  -14.273; 8410.386
843.898; 4580.885;  -11.323; 8337.465
844.463; 4945.862;  -10.263; 8506.283
845.027; 5111.614;  -10.353; 8280.962
845.591; 5050.888;  -12.163; 8231.141
846.156; 4855.885;  -12.263; 7969.179
846.720; 4843.612;  -11.553; 7768.278
847.284; 4787.354;  -12.393; 7630.957
847.848; 4190.939;  -12.623; 7472.395
848.412; 3569.542;  -11.863; 7437.394
848.976; 3442.560;  -10.203; 7674.592
849.540; 3520.307;  -10.603; 7836.011
850.104; 3655.782;  -12.423; 7913.669
850.668; 3749.430;  -14.613; 7694.508
851.232; 3668.392;  -12.873; 7756.887
851.796; 3636.402;  -14.192; 7926.545
852.359; 3771.484;  -13.652; 7827.844
852.923; 3773.532;  -11.402; 7641.163
853.487; 3685.809;  -12.022; 7342.501
854.050; 3582.294;  -15.202; 7042.820
854.614; 3529.274;  -14.592; 7151.338
855.177; 3406.341;  -12.572; 7105.077
855.741; 3368.202;   -9.932; 6989.675
856.304; 3567.794;  -12.192; 6596.634
856.868; 3709.543;  -13.462; 6356.272
857.431; 3706.521;  -11.542; 6468.571
857.995; 3722.271;  -12.062; 6373.210
858.558; 3470.749;  -11.142; 6324.448
859.121; 3152.477;  -11.742; 6408.327
859.684; 2953.018;  -10.332; 6347.886
860.247; 2919.820;  -11.962; 6321.264
860.810; 3032.288;  -12.332; 6301.903
861.374; 3057.214;  -10.292; 6607.881
861.937; 2978.917;  -12.062; 6408.200
862.500; 3065.866;  -11.702; 6572.639
863.062; 3207.378;  -13.852; 6387.297
863.625; 3290.769;  -12.972; 6190.836
864.188; 3193.304;  -10.292; 5807.254
864.751; 3045.856;  -12.382; 5682.413
865.314; 2896.232;  -13.232; 5547.492
865.876; 2716.472;  -12.772; 5500.150
866.439; 2551.334;  -11.952; 5415.909
867.002; 2508.919;   -9.332; 5501.567
867.564; 2700.589;  -11.712; 5413.946
868.127; 2881.815;  -12.012; 5160.325
868.689; 2711.338;  -11.882; 5133.183
869.252; 2410.132;  -11.572; 5252.382
869.814; 2256.118;  -10.692; 5297.141
870.377; 2308.018;  -12.392; 5390.919
870.939; 2408.192;  -10.582; 5599.898
871.501; 2441.688;  -12.782; 5248.336
872.063; 2415.278;  -15.612; 4854.235
872.626; 2413.342;  -13.922; 4817.074
873.188; 2319.421;  -13.832; 4987.732
873.750; 2173.086;  -10.962; 4868.651
874.312; 2183.532;  -11.022; 4779.330
874.874; 2205.743;  -13.152; 4866.348
875.436; 2169.259;  -13.401; 4718.887
875.998; 2129.069;   -8.891; 4660.005
876.560; 2094.350;  -12.591; 4462.964
877.122; 2048.287;  -14.531; 4145.042
877.683; 1972.961;  -10.781; 4056.481
878.245; 1904.217;  -14.281; 3950.740
878.807; 1912.158;  -10.311; 4058.958
879.369; 1856.337;  -13.201; 3954.677
879.930; 1818.839;  -12.061; 3941.495
880.492; 1840.816;   -9.181; 4067.014
881.053; 1866.604;  -12.051; 3859.633
881.615; 1851.163;  -11.501; 3776.071
882.176; 1747.793;  -12.221; 3734.750
882.738; 1601.279;   -8.931; 3678.489
883.299; 1467.233;  -13.571; 3405.407
883.860; 1484.904;  -12.331; 3351.106
884.422; 1492.898;  -10.201; 3394.044
884.983; 1430.867;  -12.521; 3166.443
885.544; 1364.868;  -12.291; 3189.802
886.105; 1279.359;  -12.991; 3160.360
886.666; 1106.926;  -12.901; 3093.059
887.227;  846.822;  -12.061; 2941.957
887.788;  652.859;  -11.641; 2974.836
888.349;  582.882;  -14.691; 2721.214
888.910;  585.584;   -9.681; 2696.493
889.471;  615.513;   -9.971; 2560.172
890.032;  645.294;  -13.151; 2558.190
890.593;  664.127;  -12.051; 2567.669
891.153;  670.666;  -12.841; 2460.307
891.714;  672.089;  -13.561; 2372.046
892.275;  672.116;  -12.401; 2309.505
892.835;  656.032;  -13.191; 2382.543
893.396;  623.758;  -12.551; 2295.502
893.956;  613.341;  -11.981; 2162.420
894.517;  621.523;  -12.221; 2125.439
895.077;  606.317;  -12.021; 2086.978
895.638;  553.301;  -10.891; 2126.316
896.198;  503.226;  -13.171; 1838.275
896.758;  469.541;  -11.891; 1892.813
897.319;  427.220;  -12.491; 1792.232
897.879;  408.569;  -12.401; 1762.751
898.439;  385.501;  -13.431; 1661.149
898.999;  368.142;  -11.340; 1781.468
899.559;  359.451;  -13.930; 1703.347
900.119;  346.027;  -13.730; 1537.525
900.679;  330.866;   -9.210; 1638.384
901.239;  318.170;  -10.860; 1527.902
901.799;  300.147;  -11.450; 1456.441
902.359;  279.641;  -13.800; 1357.140
902.919;  270.559;  -12.130; 1331.118
903.479;  268.665;  -12.650; 1317.257
904.038;  258.686;  -16.110; 1262.595
904.598;  241.432;  -13.690; 1152.034
905.158;  226.840;  -10.290; 1240.893
905.717;  219.311;  -10.670; 1233.691
906.277;  216.262;  -14.040; 1217.330
906.836;  213.774;  -13.510; 1222.408
907.396;  207.269;  -11.530; 1193.047
907.955;  199.234;  -13.190; 1182.526
908.515;  187.340;  -12.950; 1099.364
909.074;  179.187;  -12.390; 1092.863
909.633;  174.945;  -10.340; 1069.121
910.192;  173.579;  -11.170; 1196.460
910.752;  170.679;  -14.200; 1029.960
911.311;  167.427;  -13.810; 1009.780
911.870;  165.709;  -12.750;  971.460
912.429;  165.345;  -12.380; 1094.080
912.988;  162.014;  -11.930; 1081.060
913.547;  157.378;  -10.990;  940.380
914.106;  154.266;  -11.200;  999.420
914.665;  152.722;  -13.150;  984.020
915.224;  149.457;  -13.310; 1035.760
915.782;  147.915;  -13.340;  922.560
916.341;  148.109;  -10.710; 1049.840
916.900;  146.338;  -12.980;  925.260
917.458;  144.647;  -13.060;  884.220
918.017;  143.190;  -10.900;  942.600
918.576;  142.110;  -11.630;  904.440
919.134;  141.649;  -12.860;  837.980
919.693;  141.886;  -15.160;  893.060
920.251;  141.395;  -13.470;  876.500
920.809;  140.074;  -13.700;  839.580
921.368;  140.579;  -13.420;  885.360
921.926;  140.259;  -14.710;  842.940
922.484;  141.596;  -12.560;  903.360
923.042;  142.242;  -11.930;  880.340
923.601;  143.494;  -10.270;  998.680
924.159;  140.407;  -12.960;  935.560
924.717;  137.895;  -13.040;  841.080
925.275;  139.630;  -12.560;  903.240
925.833;  140.874;  -13.040;  779.320
926.391;  143.122;  -13.360;  938.380
926.949;  143.027;  -13.940;  857.680
927.506;  143.384;   -9.400;  903.500
928.064;  142.874;  -10.940;  877.580
928.622;  141.598;  -13.180;  880.100
929.180;  143.184;  -12.730;  814.180
929.737;  142.577;  -12.840;  808.540
930.295;  146.806;  -11.810;  928.480
930.853;  152.847;  -13.650;  849.100
931.410;  156.255;  -13.580;  821.120
931.968;  157.151;  -12.020;  940.660
932.525;  157.152;  -13.320;  909.380
933.082;  156.288;  -13.800;  811.440
933.640;  159.842;  -11.380;  925.900
934.197;  162.671;  -11.480;  886.360
934.754;  165.585;  -13.220;  897.780
935.312;  162.856;  -14.950;  863.340
935.869;  161.482;  -10.940; 1012.980
936.426;  156.060;  -12.100;  872.800
936.983;  155.556;  -12.930;  889.020
937.540;  157.621;  -14.250;  838.280
938.097;  161.368;  -12.600;  940.120
938.654;  167.706;  -11.260;  898.860
939.211;  171.208;  -13.020;  952.480
939.768;  173.207;  -15.760;  915.420
940.324;  177.829;  -13.920;  904.200
940.881;  176.042;  -11.620;  878.500
941.438;  174.523;   -9.870; 1021.200
941.995;  169.560;  -13.920;  992.560
942.551;  165.163;  -12.830;  875.620
943.108;  165.352;  -11.980;  937.920
943.664;  168.803;  -13.740;  869.340
944.221;  177.038;  -12.670; 1088.140
944.777;  177.792;  -13.250;  869.680
945.334;  174.286;  -13.000;  884.840
945.890;  172.768;  -13.020;  946.480
946.446;  170.814;  -13.880;  947.020
947.003;  171.572;  -12.660;  964.940
947.559;  172.185;   -8.730; 1063.040
948.115;  171.832;  -11.960; 1026.540
948.671;  166.406;  -12.360;  967.300
949.227;  160.687;  -12.700;  859.560
949.783;  158.292;  -13.450;  858.900
950.339;  158.577;  -10.620;  991.000
950.895;  153.715;  -14.770; 1023.840
951.451;  152.174;  -13.650;  925.280
952.007;  154.316;  -11.180;  998.540
952.563;  153.648;  -11.680;  937.780
953.118;  152.035;  -13.280;  904.940
953.674;  152.635;  -12.510;  935.780
954.230;  152.656;  -12.220;  949.640
954.785;  149.768;  -12.190;  936.640
955.341;  145.510;  -12.270;  998.160
955.897;  142.326;  -14.900;  834.660
956.452;  144.788;  -12.520;  953.840
957.008;  144.307;   -9.410; 1083.640
957.563;  141.100;  -11.280; 1009.540
958.118;  138.137;  -13.470;  877.700
958.674;  137.553;  -12.190;  946.780
959.229;  139.925;  -12.760; 1013.980
959.784;  142.530;  -15.710;  832.400
960.339;  148.051;  -12.540; 1001.280
960.894;  147.931;  -11.680;  963.760
961.449;  144.225;  -11.410;  859.960
962.004;  142.395;  -10.430; 1212.840
962.559;  134.580;  -14.040;  860.140
963.114;  129.675;  -14.270;  742.480
963.669;  129.935;  -11.320;  915.500
964.224;  129.818;  -14.620;  874.340
964.779;  129.212;  -14.150;  828.420
965.334;  128.578;  -10.850; 1017.860
965.888;  128.470;  -14.530;  875.360
966.443;  130.703;  -13.520;  972.380
966.998;  128.770;  -13.370;  819.460
967.552;  126.556;   -9.960;  908.380
968.107;  123.093;  -12.360;  868.300
968.661;  123.221;  -12.270;  922.440
969.216;  121.284;  -12.140;  856.280
969.770;  122.019;  -11.860;  917.200
970.324;  121.622;  -12.170;  923.140
970.879;  120.143;  -14.160;  947.180
971.433;  118.546;  -12.940;  952.720
971.987;  114.842;  -10.180;  895.340
972.541;  114.419;  -12.130;  917.100
973.095;  113.479;  -14.980; 1009.460
973.649;  112.306;  -14.480;  809.480
974.203;  114.897;  -13.530;  829.040
974.757;  117.352;  -12.060;  855.220
975.311;  114.417;  -13.240;  872.600
975.865;  112.657;  -12.550;  881.820
976.419;  111.847;  -13.180;  857.400
976.973;  111.374;  -14.100;  849.620
977.526;  109.608;  -13.330;  949.920
978.080;  105.377;  -15.390;  796.780
978.634;  104.272;  -11.670;  921.320
979.187;  101.227;  -10.640;  905.400
979.741;  101.709;  -13.330; 1018.380
980.294;   98.493;  -14.480;  789.160
980.848;   99.192;  -13.420;  717.220
981.401;   98.073;  -12.360;  816.540
981.955;   94.753;  -12.480;  844.300
982.508;   89.666;  -14.000;  746.340
983.061;   89.272;  -10.440;  915.260
983.615;   86.914;  -14.340;  798.800
984.168;   84.259;  -14.950;  770.080
984.721;   84.451;  -13.270;  880.760
985.274;   81.686;  -12.240;  867.500
985.827;   81.169;  -12.720;  834.220
986.380;   76.521;  -14.920;  721.340
986.933;   77.666;  -12.860;  864.800
987.486;   76.332;  -10.440;  861.920
988.039;   75.435;  -11.820;  863.100
988.591;   72.988;  -13.760;  893.260
989.144;   71.322;  -14.080;  737.260
989.697;   71.042;  -13.440;  758.740
990.250;   71.399;  -12.050;  858.100
990.802;   69.487;  -14.550;  755.860
991.355;   71.150;  -10.770;  974.880
991.907;   69.794;  -11.710;  864.320
992.460;   68.438;  -12.650;  753.760
993.012;   66.284;  -13.860;  749.540
993.565;   64.349;  -14.310;  711.360
994.117;   64.775;   -9.920;  950.780
994.669;   60.843;  -13.420;  701.320
995.221;   59.202;  -14.200;  791.920
995.774;   59.456;  -13.400;  787.580
996.326;   58.400;  -11.850;  740.220
996.878;   58.608;  -12.230;  838.420
997.430;   56.233;  -14.260;  699.860
997.982;   55.885;  -11.430;  750.140
998.534;   55.413;  -11.590;  739.060
999.086;   55.517;  -11.960;  738.220
999.638;   53.680;  -13.640;  661.380
1000.190;   53.013;  -13.660;  699.320
1000.741;   52.999;   -9.980;  742.700
1001.293;   52.377;  -11.860;  686.020
1001.845;   50.352;  -14.280;  676.640
1002.396;   51.300;  -12.270;  743.400
1002.948;   50.074;  -13.670;  737.400
1003.500;   49.367;  -12.010;  723.780
1004.051;   49.751;  -11.890;  907.580
1004.603;   48.956;  -11.220;  791.820
1005.154;   45.339;  -13.210;  608.980
1005.705;   44.747;  -11.850;  723.960
1006.257;   43.478;  -13.670;  707.220
1006.808;   42.638;  -12.060;  685.460
1007.359;   43.482;  -10.250;  763.240
1007.910;   41.468;  -13.440;  646.640
1008.461;   41.046;  -13.170;  732.940
1009.013;   39.737;  -14.590;  588.340
1009.564;   41.506;  -12.100;  793.520
1010.115;   39.676;  -14.000;  597.040
1010.665;   38.636;  -15.020;  602.160
1011.216;   39.371;  -12.560;  667.920
1011.767;   38.826;  -11.330;  697.920
1012.318;   39.075;  -11.450;  736.980
1012.869;   37.225;  -11.000;  679.000
1013.419;   37.112;  -11.760;  603.120
1013.970;   37.560;  -11.800;  666.640
1014.521;   36.764;  -14.750;  620.620
1015.071;   36.734;  -14.430;  670.380
1015.622;   36.482;  -14.170;  635.460
1016.172;   35.322;  -11.700;  596.820
1016.723;   36.249;  -13.230;  614.380
1017.273;   34.827;  -16.120;  604.160
1017.823;   34.581;  -13.360;  650.340
1018.374;   34.579;  -13.710;  611.760
1018.924;   35.450;  -11.050;  716.880
1019.474;   34.712;  -14.120;  718.880
1020.024;   33.723;  -12.990;  657.580
1020.574;   34.331;  -12.010;  726.160
1021.124;   35.138;  -12.080;  673.580
1021.674;   32.293;  -15.860;  559.120
1022.224;   34.373;  -11.710;  708.940
1022.774;   33.634;  -13.030;  668.820
1023.324;   34.140;  -11.000;  753.520
1023.874;   34.821;  -13.270;  875.760
1024.423;   32.172;  -14.570;  613.700
1024.973;   31.675;  -12.620;  610.760
1025.523;   31.629;  -12.630;  620.960
1026.072;   31.042;  -14.110;  606.420
1026.622;   31.104;  -15.390;  675.740
1027.172;   31.365;   -9.090;  715.660
1027.721;   30.719;  -12.250;  601.220
1028.270;   30.533;  -15.590;  663.400
1028.820;   30.160;  -13.840;  638.080
1029.369;   30.162;  -13.170;  612.700
1029.918;   31.198;  -14.080;  649.840
1030.468;   29.857;  -13.860;  564.780
1031.017;   30.024;  -12.970;  634.800
1031.566;   29.220;  -12.320;  608.900
1032.115;   29.809;  -13.140;  694.500
1032.664;   28.290;  -14.560;  596.480
1033.213;   29.397;  -11.620;  735.420
1033.762;   28.129;  -13.190;  635.620
1034.311;   28.281;  -13.460;  677.220
1034.860;   28.647;  -15.770;  691.000
1035.408;   28.538;  -13.100;  722.720
1035.957;   28.219;  -12.880;  719.540
1036.506;   26.287;  -13.640;  530.800
1037.055;   28.942;  -12.420;  844.320
1037.603;   27.699;  -13.740;  664.000
1038.152;   26.003;  -13.840;  534.760
1038.700;   27.160;  -10.770;  585.740
1039.249;   26.209;  -13.520;  681.220
1039.797;   26.462;  -13.060;  633.360
1040.345;   26.624;  -11.760;  705.420
1040.894;   26.608;  -10.790;  625.300
1041.442;   25.448;  -15.420;  632.200
1041.990;   25.228;  -14.550;  559.160
1042.538;   24.196;  -15.620;  536.180
1043.087;   25.341;  -14.940;  570.860
1043.635;   25.855;  -12.100;  670.500
1044.183;   25.193;  -13.200;  586.400
1044.731;   24.273;  -11.630;  576.000
1045.279;   24.702;  -14.200;  674.920
1045.827;   26.381;  -12.510;  892.400
1046.374;   23.796;  -14.960;  515.420
1046.922;   22.451;  -11.850;  590.580
1047.470;   25.072;  -13.770;  691.300
1048.018;   24.277;  -15.380;  647.960
1048.565;   24.885;  -14.010;  708.600
1049.113;   22.655;  -14.620;  557.000
1049.660;   24.009;  -14.940;  629.660
1050.208;   24.405;  -14.540;  675.640
1050.755;   23.045;  -13.710;  606.580
1051.303;   23.979;  -11.880;  686.820
1051.850;   23.046;  -12.160;  635.120
1052.397;   21.085;  -15.110;  473.960
1052.945;   21.582;  -14.770;  617.760
1053.492;   22.889;  -12.320;  741.840
1054.039;   22.889;  -13.290;  720.180
1054.586;   21.141;  -15.210;  557.240
1055.133;   22.028;  -12.920;  693.140
1055.680;   21.560;  -12.610;  646.620
1056.227;   21.434;  -12.620;  542.780
1056.774;   22.381;  -13.010;  794.980
1057.321;   19.638;  -16.180;  523.260
1057.868;   21.339;  -11.230;  651.320
1058.415;   21.894;  -10.890;  651.980
1058.961;   20.562;  -12.530;  678.940
1059.508;   20.490;  -14.120;  643.820
1060.055;   20.334;  -13.340;  581.780
1060.601;   20.949;  -12.920;  624.300
1061.148;   20.004;  -14.430;  616.820
1061.694;   19.087;  -14.140;  592.580
1062.241;   20.115;  -12.550;  596.320
1062.787;   20.623;  -13.370;  663.140
1063.334;   21.995;  -12.260;  808.560
1063.880;   20.446;  -10.800;  668.360
1064.426;   19.915;   -9.920;  706.820
1064.972;   18.986;  -12.970;  601.340
1065.518;   17.860;  -14.440;  566.640
1066.065;   18.805;  -12.680;  624.460
1066.611;   17.848;  -13.520;  598.800
1067.157;   19.672;  -11.100;  641.860
1067.703;   18.424;  -14.100;  668.480
1068.249;   18.494;  -13.750;  605.220
1068.794;   18.922;  -11.070;  626.880
1069.340;   17.751;  -13.210;  578.960
1069.886;   18.338;  -14.850;  590.700
1070.432;   17.006;  -14.580;  541.720
1070.977;   16.641;  -12.930;  601.080
1071.523;   17.684;  -11.970;  573.060
1072.068;   16.739;  -13.730;  582.000
1072.614;   16.074;  -14.550;  527.760
1073.160;   17.625;  -13.690;  687.040
1073.705;   17.054;  -14.780;  572.520
1074.250;   16.387;  -15.430;  559.900
1074.796;   17.556;  -11.620;  655.160
1075.341;   16.853;  -11.580;  664.100
1075.886;   16.926;  -13.190;  594.240
1076.431;   15.903;  -13.630;  649.880
1076.976;   16.250;  -11.670;  639.220
1077.521;   15.483;  -11.600;  583.080
1078.067;   15.331;  -13.920;  579.400
1078.612;   15.107;  -12.910;  661.620
1079.156;   16.181;  -15.340;  601.540
1079.701;   15.722;  -12.560;  693.260
1080.246;   16.507;  -12.490;  696.300
1080.791;   15.637;  -14.550;  625.020
1081.336;   15.928;  -15.210;  659.320
1081.880;   15.353;  -11.280;  649.680
1082.425;   15.507;  -12.830;  573.480
1082.970;   16.005;  -11.680;  717.040
1083.514;   14.269;  -15.500;  597.000
1084.059;   13.766;  -11.770;  586.720
1084.603;   14.572;  -13.480;  565.840
1085.147;   14.108;  -13.940;  645.220
1085.692;   15.132;  -13.170;  716.800
1086.236;   13.224;  -15.740;  503.140
1086.780;   15.424;  -10.750;  751.440
1087.325;   14.612;  -14.900;  654.620
1087.869;   13.604;  -15.160;  610.700
1088.413;   14.384;  -11.030;  705.040
1088.957;   13.374;  -15.210;  543.400
1089.501;   14.414;  -12.310;  766.640
1090.045;   14.193;  -12.790;  726.480
1090.589;   11.382;  -14.040;  569.920
1091.133;   13.793;  -12.800;  673.340
1091.676;   12.864;  -13.600;  591.940
1092.220;   12.093;  -12.960;  600.920
1092.764;   13.341;  -10.830;  706.960
1093.307;   13.441;  -12.390;  673.780
1093.851;   11.083;  -15.850;  556.540
1094.395;   12.647;  -12.980;  683.140
1094.938;   12.230;  -13.670;  632.520
1095.482;   12.149;  -12.740;  559.800
1096.025;   12.464;  -13.340;  710.880
1096.568;   13.438;  -10.500;  779.280
1097.112;    9.444;  -13.500;  508.180
1097.655;   11.799;  -13.060;  603.000
1098.198;    9.999;  -13.240;  600.180
1098.741;   10.677;  -15.490;  612.860
1099.285;   11.601;  -13.410;  657.300
1099.828;    9.799;  -15.640;  439.400
1100.371;   10.413;  -13.980;  608.160
1100.914;   10.831;  -13.990;  682.660
1101.457;   11.137;  -15.030;  679.900
1101.999;   10.180;  -12.480;  584.680
1102.542;   10.815;  -12.410;  641.440
1103.085;   10.156;  -14.730;  658.500
1103.628;   11.650;  -12.190;  762.060
1104.170;    9.912;  -12.360;  588.280
1104.713;   10.475;  -13.350;  646.700
1105.256;    9.380;  -14.930;  557.440
1105.798;    8.121;  -15.150;  499.980
1106.341;   11.757;  -13.230;  728.900
1106.883;    9.120;  -14.680;  521.340
1107.425;   10.075;  -14.810;  668.180
1107.968;    9.508;  -12.940;  612.380
1108.510;    9.829;  -10.550;  684.960
1109.052;    8.112;  -15.640;  612.620
1109.594;    8.758;  -14.440;  554.440
1110.136;    9.720;  -11.380;  643.220
1110.679;    8.778;  -13.090;  633.080
1111.221;    8.151;  -14.230;  604.460
1111.763;    7.557;  -14.260;  559.220
1112.304;    7.697;  -14.510;  547.140
1112.846;    9.227;  -14.700;  666.240
1113.388;   11.905;  -12.270;  942.180
1113.930;    8.614;  -13.340;  694.200
1114.472;    8.305;  -12.560;  606.540
1115.013;    8.090;  -14.280;  551.280
1115.555;    7.353;  -14.010;  587.100
1116.097;    6.734;  -14.730;  579.480
1116.638;    7.420;  -12.160;  684.600
1117.180;    8.635;  -14.320;  667.740
1117.721;    6.580;  -15.730;  568.580
1118.262;    8.061;  -13.480;  677.960
1118.804;    7.859;  -11.530;  637.340
1119.345;    6.591;  -13.540;  578.400
1119.886;    7.910;  -14.470;  704.040
1120.427;    6.648;  -13.030;  589.020
1120.969;    6.480;  -13.150;  597.920
1121.510;    6.051;  -13.940;  563.060
1122.051;    7.088;  -12.310;  723.580
1122.592;    6.419;  -13.870;  655.420
1123.133;    5.148;  -12.890;  547.940
1123.673;    7.406;  -13.300;  706.480
1124.214;    6.024;  -14.000;  612.460
1124.755;    6.675;  -13.210;  639.460
1125.296;    6.573;  -13.450;  627.320
1125.836;    7.124;  -12.610;  691.500
1126.377;    5.143;  -15.840;  599.660
1126.918;    6.544;  -11.830;  614.980
1127.458;    5.752;  -11.830;  622.220
1127.999;    6.792;  -11.490;  656.980
1128.539;    6.343;  -12.900;  694.240
1129.079;    5.441;  -14.910;  632.720
1129.620;    4.373;  -12.920;  558.100
1130.160;    4.620;  -14.640;  539.480
1130.700;    5.477;  -13.270;  640.840
1131.240;    5.652;  -14.110;  643.700
1131.781;    4.510;  -13.130;  619.680
1132.321;    5.212;  -15.220;  599.120
1132.861;    4.150;  -15.670;  564.200
1133.401;    3.614;  -13.970;  593.940
1133.941;    4.437;  -13.740;  626.280
1134.481;    4.688;  -13.200;  597.580
1135.020;    3.500;  -14.830;  609.160
1135.560;    4.813;  -14.590;  674.940
1136.100;    2.762;  -13.730;  501.160
1136.640;    3.202;  -15.240;  510.480
1137.179;    3.316;  -14.710;  537.960
1137.719;    3.813;  -14.090;  605.400
1138.258;    3.583;  -12.470;  587.360
1138.798;    4.680;  -12.580;  663.780
1139.337;    1.931;  -16.480;  482.840
1139.877;    3.412;  -13.970;  642.360
1140.416;    6.004;   -9.870;  878.060
1140.955;    2.858;  -14.860;  535.380
1141.494;    3.318;  -14.530;  669.280
1142.034;    2.704;  -13.940;  583.520
1142.573;    4.311;  -11.160;  646.280
1143.112;    2.520;  -15.050;  553.480
1143.651;    2.997;  -15.390;  536.480
1144.190;    3.374;  -12.990;  691.640
1144.729;    2.829;  -12.220;  607.420
1145.267;    3.345;  -14.020;  584.900
1145.806;    3.440;  -12.740;  637.040
1146.345;    2.719;  -14.810;  635.020
1146.884;    2.409;  -12.920;  622.500
1147.422;    2.133;  -13.930;  533.060
1147.961;    3.787;  -11.830;  708.460
1148.500;    2.687;  -12.710;  669.720
1149.038;    2.704;  -14.420;  632.500
1149.577;    3.074;  -13.920;  698.640
1150.115;   -0.116;  -17.050;  452.280
1150.653;    2.427;  -14.890;  607.340
1151.192;    2.205;  -15.270;  552.920
1151.730;    2.170;  -13.160;  652.560
1152.268;    1.687;  -15.430;  589.520
1152.806;    1.316;  -15.880;  571.180
1153.344;    0.073;  -13.240;  577.640
1153.882;    2.289;  -13.010;  600.060
1154.421;   -0.568;  -16.180;  470.620
1154.958;    0.517;  -13.880;  595.240
1155.496;    2.004;  -13.590;  645.280
1156.034;    2.248;  -11.910;  721.880
1156.572;    2.114;  -12.010;  667.060
1157.110;   -0.021;  -16.250;  473.940
1157.647;    2.057;  -15.230;  676.960
1158.185;    0.641;  -13.770;  564.320
1158.723;   -0.077;  -15.300;  509.200
1159.260;    1.364;  -13.130;  701.700
1159.798;    1.405;  -11.300;  658.160
1160.335;    0.555;  -13.210;  631.820

