
Integration time [ms]:   3.882
Averaging Nr. [scans]: 1000
Smoothing Nr. [pixels]: 0
Data measured with spectrometer [name]: 7414430SP
Wave   ;Sample   ;Dark     ;Reference
[nm]   ;[counts] ;[counts] ;[counts] 

288.544;  142.769;    7.153;  793.890
289.143;  147.240;    8.402;  681.602
289.742;  147.451;    7.062;  828.814
290.341;  133.788;    0.191;  789.841
290.940;  123.988;    0.321;  730.702
291.538;  124.541;    3.811;  881.108
292.137;  123.543;   -3.438;  792.581
292.736;  127.438;   -2.809;  975.101
293.335;  123.970;   -5.239;  735.086
293.934;  124.022;   -4.939;  781.677
294.532;  124.476;   -2.199; 1031.958
295.131;  111.467;   -6.831;  834.394
295.730;  109.834;   -6.620;  809.588
296.328;  108.117;   -6.471;  783.442
296.927;  108.069;   -6.571;  779.652
297.525;  109.277;   -7.391;  781.236
298.124;  100.728;   -9.402;  654.009
298.722;  105.195;   -5.781;  761.933
299.321;  102.833;   -6.351;  708.597
299.919;  101.276;   -8.661;  751.918
300.518;   96.332;  -11.922;  689.338
301.116;   97.719;   -6.941;  691.381
301.715;   97.256;   -5.471;  730.222
302.313;   98.051;   -8.361;  704.943
302.911;   92.644;   -9.082;  733.830
303.509;   98.138;   -4.571;  925.627
304.108;   95.755;   -7.111;  760.383
304.706;   94.834;   -7.681;  801.664
305.304;   89.235;   -9.162;  796.707
305.902;   94.509;   -6.761;  784.484
306.500;   90.607;   -6.921;  728.200
307.098;   90.026;   -6.491;  746.560
307.696;   87.449;   -6.941;  780.432
308.294;   86.555;   -6.301;  731.359
308.892;   89.713;   -4.771;  759.769
309.490;   86.167;   -5.141;  712.161
310.088;   84.175;   -2.912;  788.444
310.686;   89.127;   -0.421;  821.749
311.284;   84.247;   -3.461;  766.040
311.882;   82.873;   -6.282;  731.225
312.480;   80.018;   -3.632;  697.167
313.078;   80.501;   -2.112;  808.331
313.675;   81.073;   -1.931;  691.600
314.273;   77.176;   -1.442;  797.837
314.871;   75.850;   -3.002;  589.829
315.468;   72.880;   -2.252;  652.090
316.066;   76.703;   -1.091;  694.427
316.664;   69.706;   -4.512;  656.351
317.261;   74.684;   -0.062;  910.128
317.859;   69.435;   -0.952;  768.735
318.456;   70.947;    0.719;  830.096
319.054;   67.034;   -4.002;  787.828
319.651;   65.830;   -4.972;  759.928
320.249;   63.964;   -1.162;  810.188
320.846;   61.841;   -2.651;  714.286
321.443;   59.871;   -3.832;  832.135
322.041;   56.682;   -4.312;  812.315
322.638;   54.954;   -3.872;  701.456
323.235;   56.487;   -4.361;  665.683
323.833;   54.415;   -4.821;  740.354
324.430;   49.195;   -6.971;  615.900
325.027;   50.646;   -4.361;  876.855
325.624;   50.983;   -5.581;  644.532
326.221;   47.804;   -6.601;  689.717
326.818;   47.612;   -7.301;  818.332
327.415;   50.058;   -6.180;  748.828
328.012;   49.699;   -5.920;  690.585
328.609;   47.703;   -8.390;  731.389
329.206;   45.650;   -6.121;  778.621
329.803;   45.485;   -5.241;  737.841
330.400;   47.269;   -7.420;  704.260
330.997;   48.462;   -5.931;  817.147
331.594;   46.253;   -5.641;  788.185
332.191;   52.168;   -6.451;  728.722
332.787;   55.179;   -4.651;  844.463
333.384;   53.896;   -5.472;  763.093
333.981;   50.464;   -6.303;  815.687
334.578;   52.996;   -5.892;  708.378
335.174;   56.305;   -4.102;  731.469
335.771;   55.538;   -8.053;  836.456
336.367;   51.559;   -7.363;  710.631
336.964;   55.403;   -6.243;  793.266
337.561;   54.646;   -5.653;  731.112
338.157;   50.074;   -7.074;  911.916
338.754;   47.794;   -5.474;  796.589
339.350;   46.095;   -5.624;  722.493
339.946;   48.315;   -5.054;  773.135
340.543;   41.664;   -6.695;  846.136
341.139;   36.375;   -6.215;  720.836
341.735;   33.712;   -5.746;  772.593
342.332;   33.566;   -7.335;  691.472
342.928;   32.868;   -4.835;  795.394
343.524;   27.724;   -4.586;  761.684
344.120;   24.634;   -3.946;  738.562
344.716;   27.416;   -4.835;  723.717
345.313;   25.654;   -5.325;  795.342
345.909;   20.286;   -6.535;  627.336
346.505;   21.805;   -4.725;  740.247
347.101;   22.458;   -4.164;  827.864
347.697;   23.165;   -5.274;  785.398
348.293;   17.385;   -7.145;  627.244
348.889;   18.136;   -4.364;  745.914
349.485;   17.596;   -6.404;  688.205
350.081;   19.088;   -7.534;  772.592
350.676;   13.903;   -6.995;  691.606
351.272;   18.564;   -3.544;  809.530
351.868;   18.113;   -5.324;  780.497
352.464;   15.119;   -7.204;  723.932
353.059;   11.828;   -6.894;  646.017
353.655;   15.007;   -3.754;  777.063
354.251;   16.693;   -6.143;  759.845
354.846;   11.148;   -9.464;  740.646
355.442;    7.640;   -7.555;  753.071
356.038;   10.093;   -5.474;  751.708
356.633;   10.157;   -5.914;  728.594
357.229;    8.716;   -8.944;  724.757
357.824;    6.867;   -6.794;  703.600
358.420;    5.783;   -5.754;  679.726
359.015;    7.064;   -5.664;  695.357
359.610;    8.312;   -8.004;  763.920
360.206;    1.252;   -8.815;  603.240
360.801;    4.316;   -8.834;  646.503
361.396;    6.927;   -6.274;  725.975
361.992;    2.383;   -8.574;  668.220
362.587;   -0.968;   -9.265;  670.160
363.182;    1.218;   -5.484;  689.631
363.777;    2.645;   -5.164;  738.242
364.372;    2.713;   -6.954;  737.314
364.967;   -1.413;   -7.065;  680.744
365.563;    2.447;   -5.684;  815.567
366.158;    0.129;   -6.484;  685.161
366.753;    0.897;   -8.004;  649.263
367.348;   -0.931;  -10.114;  746.056
367.942;   -1.681;   -7.764;  697.298
368.537;   -1.495;   -4.554;  754.245
369.132;   -1.627;   -7.664;  703.428
369.727;   -5.672;   -8.905;  638.079
370.322;   -4.990;   -4.945;  580.186
370.917;   -4.275;   -7.095;  710.646
371.511;   -1.590;   -6.574;  861.834
372.106;   -5.801;   -6.515;  776.964
372.701;   -9.258;   -8.225;  585.988
373.296;   -3.162;   -4.494;  863.135
373.890;   -7.442;   -7.965;  647.840
374.485;  -10.361;   -9.745;  691.199
375.079;   -6.094;   -5.554;  738.685
375.674;   -3.831;   -4.724;  812.970
376.268;   -8.609;   -8.365;  691.759
376.863;  -14.280;   -8.126;  580.327
377.457;   -8.297;   -6.045;  662.490
378.052;   -9.165;   -6.835;  764.884
378.646;   -9.974;   -9.375;  741.167
379.240;  -10.902;   -6.185;  721.176
379.835;  -10.064;   -6.135;  636.978
380.429;  -12.020;   -8.365;  562.557
381.023;  -11.548;   -7.935;  779.205
381.617;  -14.151;   -8.325;  680.106
382.212;  -11.628;   -7.405;  685.303
382.806;   -9.651;   -4.155;  760.690
383.400;  -14.263;   -8.945;  672.281
383.994;  -15.035;   -8.365;  664.870
384.588;  -10.927;   -7.824;  697.701
385.182;   -9.870;   -7.984;  726.624
385.776;  -11.098;  -10.404;  706.875
386.370;  -14.366;   -7.335;  681.968
386.964;  -13.076;   -7.485;  684.155
387.558;  -11.485;   -8.174;  598.360
388.152;  -14.376;  -10.415;  681.959
388.745;  -13.167;   -9.595;  814.707
389.339;  -11.717;   -6.454;  747.642
389.933;   -9.942;   -5.804;  695.370
390.527;  -11.824;   -6.854;  859.029
391.120;  -18.257;   -7.665;  595.318
391.714;  -14.869;   -7.245;  711.633
392.308;  -11.296;   -4.514;  780.253
392.901;  -15.330;   -7.935;  642.460
393.495;  -17.435;   -8.585;  595.414
394.089;  -15.242;   -5.245;  760.452
394.682;  -15.192;   -6.305;  697.188
395.275;  -15.041;   -9.335;  719.927
395.869;  -17.531;   -7.375;  667.314
396.462;  -16.191;   -7.055;  616.609
397.056;  -12.080;   -5.434;  776.621
397.649;  -16.391;   -9.525;  731.575
398.242;  -13.207;   -7.574;  712.645
398.836;  -12.658;   -5.134;  766.408
399.429;  -15.050;   -6.544;  631.041
400.022;  -18.656;   -9.215;  665.902
400.615;  -15.243;   -8.105;  805.609
401.208;  -13.149;   -7.614;  691.451
401.802;  -15.800;   -8.085;  699.329
402.395;  -16.678;   -9.575;  683.502
402.988;  -16.981;   -9.285;  696.627
403.581;  -14.287;   -7.514;  646.878
404.174;  -11.861;   -6.404;  686.568
404.767;  -14.771;   -8.775;  638.583
405.360;  -17.588;   -7.415;  621.445
405.953;  -11.979;   -5.624;  759.034
406.545;  -10.904;   -6.474;  725.342
407.138;  -16.041;   -8.445;  618.350
407.731;  -14.497;  -10.044;  613.303
408.324;  -10.196;   -8.484;  660.554
408.917;  -11.409;   -7.624;  681.864
409.509;  -13.034;   -8.304;  740.396
410.102;  -15.406;   -8.495;  643.948
410.695;   -9.105;   -7.824;  665.758
411.287;  -10.375;   -7.754;  599.821
411.880;  -11.504;   -9.294;  585.421
412.472;  -14.274;   -8.814;  613.092
413.065;  -11.262;   -6.674;  629.408
413.657;  -10.271;   -9.664;  576.678
414.250;   -8.380;  -10.264;  646.681
414.842;  -11.427;   -8.664;  676.353
415.434;   -8.660;   -8.584;  570.463
416.027;   -4.158;   -9.423;  652.196
416.619;   -6.779;  -10.764;  713.400
417.211;   -7.502;   -7.404;  599.352
417.804;   -4.413;   -7.383;  628.499
418.396;   -7.133;   -8.334;  607.643
418.988;   -4.699;   -9.633;  659.238
419.580;   -8.602;  -10.554;  568.276
420.172;   -7.221;   -8.683;  536.196
420.764;   -2.634;   -9.713;  672.482
421.356;   -2.857;  -11.303;  636.898
421.948;   -4.301;   -8.453;  677.661
422.540;    0.726;   -5.793;  680.027
423.132;   -0.400;   -7.162;  600.641
423.724;   -3.046;   -7.933;  561.267
424.316;   -1.832;   -9.083;  621.345
424.908;    1.959;   -8.392;  591.517
425.500;    2.827;   -8.062;  647.978
426.092;    3.940;   -9.692;  648.268
426.683;    1.773;   -8.223;  684.836
427.275;    5.326;   -8.602;  641.471
427.867;    6.745;   -8.382;  668.948
428.458;    6.463;  -10.472;  732.344
429.050;    5.438;   -9.112;  680.749
429.642;    7.809;   -7.752;  743.124
430.233;    7.615;   -8.832;  569.356
430.825;   10.665;   -8.292;  724.809
431.416;    6.844;   -7.522;  698.241
432.008;   10.106;   -9.262;  651.723
432.599;   11.440;   -6.441;  656.073
433.190;    8.349;   -9.222;  637.670
433.782;    7.167;  -11.832;  590.395
434.373;   15.687;   -7.121;  884.765
434.964;   13.904;   -9.141;  602.920
435.556;   11.217;   -9.332;  634.537
436.147;   14.686;   -8.892;  758.490
436.738;   14.011;   -8.151;  701.099
437.329;   19.832;   -8.281;  721.723
437.920;   12.052;   -9.062;  666.688
438.511;   12.081;  -11.182;  564.526
439.103;   18.544;   -7.461;  623.998
439.694;   20.858;   -8.541;  681.583
440.285;   22.474;   -7.351;  764.432
440.876;   20.204;   -8.201;  845.738
441.466;   18.672;  -10.381;  575.162
442.057;   24.338;   -7.620;  665.814
442.648;   23.292;   -8.461;  746.255
443.239;   21.064;   -8.991;  620.477
443.830;   25.809;   -7.910;  704.958
444.421;   28.249;   -7.340;  655.474
445.011;   25.095;   -8.981;  693.619
445.602;   24.599;   -9.341;  743.126
446.193;   25.387;  -11.390;  488.117
446.783;   30.919;  -11.240;  640.397
447.374;   26.227;   -8.471;  692.759
447.964;   26.975;   -8.471;  713.770
448.555;   34.799;   -6.590;  822.742
449.145;   31.766;   -8.200;  662.853
449.736;   32.433;  -11.040;  803.179
450.326;   32.386;   -9.640;  713.626
450.917;   36.929;   -9.480;  675.324
451.507;   36.137;   -8.020;  600.661
452.097;   37.362;  -10.210;  746.267
452.688;   38.637;   -7.810;  742.160
453.278;   37.879;   -9.360;  566.840
453.868;   41.946;   -8.669;  793.550
454.458;   40.410;  -10.950;  651.141
455.048;   41.047;  -10.200;  711.783
455.639;   42.087;   -9.369;  567.096
456.229;   45.075;   -7.739;  710.694
456.819;   47.530;   -8.939;  751.158
457.409;   47.458;   -7.169;  773.993
457.999;   50.374;   -7.779;  737.505
458.589;   50.134;   -7.039;  686.606
459.179;   49.958;   -9.019;  717.658
459.769;   48.433;   -8.909;  627.099
460.358;   53.075;   -8.659;  797.262
460.948;   52.671;   -8.209;  689.503
461.538;   54.291;   -9.879;  660.677
462.128;   52.408;   -9.379;  664.934
462.717;   59.942;   -9.158;  710.326
463.307;   62.015;   -8.638;  705.846
463.897;   58.401;   -8.869;  656.942
464.486;   57.338;   -7.409;  837.128
465.076;   62.192;   -9.618;  733.776
465.666;   65.481;   -7.578;  652.900
466.255;   63.215;   -9.369;  785.651
466.845;   61.570;  -10.049;  666.749
467.434;   64.785;   -8.168;  725.873
468.023;   66.015;   -9.188;  658.357
468.613;   64.408;   -9.849;  713.946
469.202;   67.668;  -12.958;  646.507
469.791;   73.093;   -9.488;  737.811
470.381;   74.330;   -6.468;  742.813
470.970;   73.848;  -10.248;  711.099
471.559;   73.282;  -11.428;  733.291
472.148;   76.021;   -9.738;  675.737
472.738;   79.925;   -7.877;  765.466
473.327;   79.292;  -11.868;  637.529
473.916;   78.391;   -8.578;  737.446
474.505;   82.884;  -11.137;  751.703
475.094;   86.142;   -9.407;  806.570
475.683;   84.851;   -9.977;  797.699
476.272;   85.669;  -10.807;  730.632
476.861;   90.004;  -11.017;  706.754
477.449;   95.617;  -10.316;  728.487
478.038;   89.807;  -10.187;  692.513
478.627;   90.772;  -12.458;  714.852
479.216;   97.688;  -10.127;  769.441
479.805;  100.110;   -6.256;  783.375
480.393;  101.000;   -8.737; 1008.945
480.982;   99.629;   -9.087;  874.501
481.571;  104.897;   -7.806;  858.333
482.159;  106.906;  -10.596;  705.386
482.748;  105.786;  -11.507;  821.385
483.336;  111.109;   -8.366;  858.209
483.925;  110.794;   -7.497;  774.373
484.513;  117.662;   -8.326;  758.962
485.102;  114.566;  -10.277;  810.965
485.690;  124.374;   -8.256; 1011.050
486.278;  125.448;   -7.146;  979.329
486.867;  124.946;   -7.986;  809.662
487.455;  128.827;   -9.926;  898.229
488.043;  129.669;  -10.026;  748.361
488.631;  138.842;   -7.226; 1005.079
489.220;  142.378;   -8.696;  908.626
489.808;  142.946;  -12.276;  741.415
490.396;  152.186;   -9.386;  914.645
490.984;  158.061;   -8.506;  830.161
491.572;  169.507;   -8.226;  940.315
492.160;  177.249;   -9.836;  919.081
492.748;  189.996;  -10.316;  884.341
493.336;  213.513;   -7.146; 1019.693
493.924;  240.424;   -7.965;  958.077
494.512;  273.311;  -10.316; 1066.638
495.100;  316.947;  -10.186; 1103.280
495.687;  387.190;   -7.805; 1206.373
496.275;  466.278;   -9.686; 1150.796
496.863;  565.960;  -11.566; 1281.171
497.451;  664.715;  -11.406; 1386.805
498.038;  789.756;   -8.235; 1556.729
498.626;  930.362;   -7.485; 1741.407
499.214; 1117.654;   -8.646; 2016.609
499.801; 1394.450;   -9.936; 2220.633
500.389; 1659.873;   -8.056; 2312.494
500.976; 1871.620;   -6.166; 2744.849
501.564; 2125.082;   -9.126; 3148.565
502.151; 2520.504;  -12.456; 3515.999
502.738; 2979.229;  -10.056; 3971.274
503.326; 3422.356;  -10.605; 4403.796
503.913; 3829.916;  -10.576; 5161.749
504.500; 4453.653;   -9.056; 5986.420
505.088; 4971.144;  -10.136; 6381.201
505.675; 5709.371;   -9.075; 6925.547
506.262; 6200.049;  -11.346; 7619.060
506.849; 7085.104;   -9.376; 8733.969
507.436; 7830.646;   -7.365; 9790.121
508.023; 7725.144;   -8.686; 9985.472
508.610; 8054.291;   -8.846;10434.618
509.197; 9043.892;   -9.077;11198.435
509.784;10612.808;  -10.246;12391.194
510.371;11814.289;   -9.825;13603.713
510.958;13054.294;  -10.896;14426.586
511.545;13690.452;   -9.006;15243.775
512.132;13342.380;   -8.765;15945.876
512.719;14144.604;   -8.286;16340.369
513.305;16066.246;   -9.256;18011.766
513.892;18188.639;  -11.106;19754.971
514.479;21504.520;   -8.576;20967.805
515.066;24421.107;   -9.046;22299.793
515.652;24937.588;  -10.676;22908.660
516.239;25527.578;  -10.166;23798.875
516.825;25358.588;  -11.266;25567.275
517.412;24868.031;   -7.446;28154.959
517.998;24079.629;  -10.916;28344.111
518.585;23316.303;   -9.166;27134.219
519.171;22292.553;  -10.135;27268.576
519.758;23556.203;   -8.806;28964.129
520.344;26840.266;   -6.716;30664.494
520.930;29312.678;  -10.166;32550.605
521.516;29712.996;   -9.615;35422.895
522.103;32288.176;   -8.656;38280.004
522.689;33234.805;   -9.646;37835.117
523.275;32515.721;  -10.786;37288.613
523.861;35340.770;   -9.266;37281.395
524.447;36247.637;   -8.285;37846.949
525.033;35421.398;   -9.426;38321.949
525.619;34407.973;   -9.836;38579.285
526.205;35319.508;   -8.136;40622.875
526.791;35843.645;   -9.986;42258.836
527.377;36587.457;   -8.236;42966.902
527.963;36013.227;  -12.117;42018.949
528.549;34901.523;   -8.376;42476.828
529.135;36172.672;   -8.696;41854.852
529.721;38902.398;   -9.686;41237.711
530.306;40692.539;   -8.616;41259.445
530.892;42371.875;   -9.396;41506.047
531.478;42893.684;   -9.926;43559.613
532.063;43545.305;  -10.236;47695.563
532.649;45356.840;   -8.257;50808.324
533.235;46021.504;  -11.476;51787.500
533.820;45339.930;   -8.156;52145.035
534.406;46022.199;  -12.257;51133.488
534.991;43252.582;   -8.686;49996.805
535.576;40722.840;   -9.426;48882.852
536.162;40102.734;   -8.436;46942.285
536.747;40355.570;  -10.957;45711.746
537.333;39975.570;  -13.147;48510.180
537.918;42620.379;   -9.027;50439.891
538.503;44604.391;   -8.256;50863.711
539.088;45951.074;  -10.576;50906.922
539.673;47003.414;  -10.907;52621.965
540.259;47664.098;   -9.126;52368.094
540.844;46292.465;   -9.026;50879.109
541.429;46156.875;   -9.597;52077.777
542.014;48029.043;  -11.447;52716.695
542.599;49430.246;   -9.236;52363.281
543.184;49511.977;  -12.267;53187.137
543.769;50170.555;  -10.367;54697.605
544.354;49864.223;  -10.887;53913.914
544.938;44365.164;  -11.687;49680.164
545.523;39981.441;   -8.286;47386.277
546.108;41048.332;   -9.317;49151.949
546.693;41222.148;  -10.187;51384.637
547.278;39128.203;   -9.926;51853.254
547.862;38403.797;   -9.196;51173.750
548.447;39119.527;   -9.657;51691.395
549.031;41463.828;   -9.127;52456.703
549.616;43233.773;  -10.836;52714.516
550.201;44249.629;   -8.507;52414.598
550.785;46027.328;  -10.537;52355.059
551.370;49133.371;  -11.727;54589.453
551.954;48827.992;   -9.457;58267.348
552.538;47486.344;   -8.147;59062.176
553.123;45862.922;   -9.397;58115.285
553.707;45582.797;   -9.558;56556.285
554.291;44629.957;   -9.417;56201.668
554.876;47525.434;   -7.627;55335.762
555.460;46568.047;  -10.457;54155.703
556.044;42391.789;  -10.078;53721.484
556.628;41730.363;   -9.407;53731.016
557.212;41894.074;   -7.957;54312.531
557.796;43218.922;  -11.327;53797.773
558.380;47310.211;  -10.868;56145.984
558.964;46747.336;   -9.637;57277.930
559.548;44804.938;   -8.807;56459.641
560.132;46354.438;  -10.187;54434.543
560.716;45625.727;   -9.868;54800.617
561.300;47637.129;  -10.217;57606.945
561.884;48232.277;   -4.947;58972.445
562.467;45994.449;   -9.588;57327.570
563.051;41653.660;  -11.138;54962.434
563.635;41546.738;   -9.358;52594.473
564.219;41577.633;   -9.797;50610.410
564.802;42025.266;   -9.918;49551.180
565.386;41309.223;  -10.838;48370.953
565.969;39859.289;   -8.037;48178.871
566.553;38308.762;   -5.667;49957.305
567.136;39174.145;   -8.258;50369.594
567.720;39114.320;  -11.278;49492.004
568.303;36861.184;   -9.028;50616.352
568.887;35536.273;   -7.508;50727.148
569.470;35121.766;  -11.068;51698.379
570.053;36301.730;  -10.028;52122.078
570.637;36057.227;  -11.077;52536.438
571.220;37345.570;   -8.747;51186.098
571.803;39800.371;   -8.868;51032.762
572.386;41234.832;  -10.608;49609.887
572.969;41238.801;  -10.548;48285.926
573.552;38886.027;   -7.898;47624.285
574.135;37884.902;   -9.918;45498.641
574.718;33595.793;  -10.328;41970.434
575.301;30891.742;   -9.548;41447.137
575.884;28187.691;   -8.768;40923.836
576.467;33279.043;   -9.858;45267.723
577.050;34465.445;  -11.018;48175.543
577.633;36135.359;  -10.048;47729.328
578.216;35869.238;  -10.268;47579.793
578.799;33573.613;  -11.808;47820.996
579.381;32740.291;   -7.338;48115.551
579.964;34977.477;   -9.728;47333.766
580.547;35229.375;   -8.928;46668.969
581.129;35017.980;   -9.149;44466.141
581.712;35881.398;  -11.359;44164.922
582.294;35090.531;  -10.738;46477.855
582.877;33474.734;   -8.788;48244.254
583.459;33354.250;   -9.859;47437.895
584.042;35181.699;   -9.649;46943.219
584.624;34814.797;  -10.529;46792.227
585.206;32367.090;  -10.298;46557.250
585.789;30088.193;  -11.029;45793.773
586.371;28646.480;   -9.359;43836.391
586.953;26348.932;   -8.799;42972.492
587.536;25416.188;   -8.928;42487.211
588.118;27644.266;   -9.180;42086.414
588.700;29448.736;  -10.519;43389.930
589.282;29862.236;   -8.098;43646.039
589.864;30315.408;   -8.139;43438.109
590.446;32687.084;  -10.509;43151.926
591.028;35444.215;  -11.119;42781.867
591.610;36371.102;  -10.019;42839.098
592.192;34853.758;   -8.838;42820.402
592.774;32359.572;  -11.549;40724.277
593.356;29471.633;  -11.609;39874.789
593.937;30074.920;  -10.019;39980.648
594.519;33803.230;   -7.839;42069.633
595.101;35975.488;  -10.779;42976.031
595.683;36158.563;  -10.049;44084.441
596.264;34751.215;   -9.969;43478.797
596.846;32938.699;   -9.699;43803.672
597.427;32063.447;  -10.970;42986.934
598.009;32762.203;  -13.090;42832.219
598.591;33090.652;   -9.509;42580.086
599.172;31725.162;   -9.019;43061.805
599.753;29811.828;  -13.310;41691.469
600.335;29846.721;  -11.010;40692.520
600.916;29872.684;  -10.309;39982.422
601.498;30220.240;   -8.209;40318.617
602.079;30670.984;  -11.440;40670.609
602.660;32203.764;   -8.690;41450.898
603.241;33523.500;  -12.759;41137.738
603.823;31754.303;  -10.409;38868.797
604.404;31763.605;  -11.790;38182.785
604.985;30720.459;  -10.280;38078.047
605.566;31908.930;   -8.059;38056.633
606.147;31729.277;   -8.960;37020.418
606.728;31481.973;  -10.710;37883.359
607.309;31334.182;  -12.760;38748.273
607.890;28966.344;   -9.959;38850.230
608.471;27515.834;   -9.780;37457.918
609.051;29288.035;   -8.940;36066.457
609.632;32428.631;  -12.070;35991.074
610.213;34217.883;   -9.610;37402.641
610.794;33810.773;   -8.750;38383.363
611.374;32249.672;  -11.100;40562.387
611.955;32703.826;  -12.200;38533.727
612.536;32896.195;  -10.410;36951.789
613.116;32670.953;  -10.010;37197.891
613.697;31658.133;  -10.480;38411.125
614.277;30407.455;  -12.751;38673.938
614.858;29852.148;  -11.600;37075.863
615.438;29335.938;   -8.190;35092.906
616.019;28839.291;   -8.941;33666.301
616.599;29868.793;  -13.540;34189.023
617.179;29799.074;  -10.890;36952.047
617.760;29226.242;   -7.610;39582.574
618.340;28897.988;  -14.441;38943.977
618.920;29553.451;   -9.180;37594.156
619.500;30602.750;  -11.881;37866.938
620.080;32784.008;   -9.870;37869.043
620.660;32158.756;  -13.211;36868.617
621.241;30560.578;  -11.921;36352.309
621.821;29498.232;  -10.271;35459.520
622.401;29476.301;   -8.200;35207.414
622.980;30816.861;  -11.141;35980.422
623.560;32410.281;  -14.321;37351.328
624.140;32104.217;   -9.360;34388.582
624.720;27873.959;   -7.481;32368.764
625.300;25432.344;  -12.730;32638.629
625.880;30217.473;  -11.441;34599.035
626.459;33186.117;  -10.971;36831.738
627.039;34986.383;   -9.011;38299.098
627.619;34758.578;   -8.521;38289.574
628.198;35408.320;   -9.861;37220.695
628.778;34854.898;   -8.841;37632.563
629.357;34042.902;   -9.891;38003.012
629.937;31578.256;  -11.871;38402.039
630.516;29781.664;  -10.641;37868.801
631.096;32624.838;  -11.391;35760.410
631.675;34674.086;   -6.622;35225.219
632.254;32613.943;  -13.002;35130.289
632.834;31240.908;  -11.622;35794.570
633.413;32229.896;   -8.321;35788.922
633.992;30428.453;   -7.732;34532.863
634.571;30688.650;  -10.992;33590.113
635.151;31590.781;  -10.422;34943.863
635.730;30797.105;  -11.511;35352.523
636.309;29069.148;   -7.901;35366.605
636.888;29269.529;  -11.452;36165.637
637.467;29972.564;  -10.672;37515.902
638.046;29636.621;   -9.301;39288.695
638.625;30391.061;  -11.452;38279.699
639.204;31349.322;  -12.262;37741.598
639.782;31432.041;  -11.892;38364.551
640.361;30541.799;  -11.411;36740.621
640.940;27712.883;  -11.501;34950.082
641.519;28797.955;  -10.921;34137.398
642.097;31873.682;  -10.101;35654.258
642.676;31173.588;  -10.821;35637.957
643.255;33507.238;   -8.631;36567.074
643.833;35995.637;  -11.411;37809.434
644.412;37215.977;  -12.021;37337.293
644.990;36895.711;  -12.271;37018.531
645.569;35389.797;   -9.741;36518.469
646.147;34059.953;   -9.051;36186.430
646.726;32913.523;  -13.861;36267.688
647.304;32530.059;   -9.461;36647.625
647.882;31820.924;  -13.171;39286.742
648.461;32209.992;  -11.911;39157.703
649.039;33106.574;   -9.541;35412.883
649.617;34205.117;   -8.901;34744.918
650.195;31723.314;   -8.591;35403.098
650.773;30024.104;  -13.031;35053.797
651.352;29230.295;  -12.211;33756.816
651.930;26511.600;  -11.361;31868.773
652.508;23357.268;   -8.601;33121.551
653.086;26888.051;   -9.991;33564.793
653.663;31906.578;  -11.931;34054.668
654.241;34344.078;  -10.821;35693.309
654.819;34667.309;   -9.341;36422.906
655.397;32335.734;  -10.851;38213.484
655.975;30795.316;  -11.461;39507.625
656.553;31257.994;   -8.841;39498.223
657.130;29993.955;  -10.371;40395.480
657.708;28776.949;  -11.071;39242.020
658.286;28436.977;  -11.141;38920.020
658.863;30215.541;  -10.861;40202.898
659.441;35407.988;  -11.181;39677.938
660.018;37171.629;  -10.851;40413.355
660.596;36194.719;  -12.571;39931.414
661.173;36887.281;  -12.141;39604.531
661.750;34824.758;  -11.571;39700.070
662.328;32026.922;  -10.780;39292.809
662.905;30316.699;  -10.750;38235.648
663.482;27406.441;  -11.320;36212.305
664.060;26181.096;  -10.160;35944.945
664.637;30948.689;  -13.120;35170.785
665.214;33014.262;  -11.500;34197.523
665.791;31098.451;  -12.430;34549.520
666.368;29402.260;   -9.840;35118.578
666.945;28754.186;  -11.290;36019.418
667.522;29082.742;  -13.540;36048.438
668.099;30155.133;  -10.250;36243.914
668.676;29105.096;  -11.270;35958.875
669.253;28244.947;   -8.210;37384.730
669.830;27199.158;   -9.710;36779.629
670.407;27259.811;   -9.700;35231.289
670.984;27424.889;   -9.190;35544.270
671.560;25840.406;   -9.560;35466.867
672.137;25240.781;  -11.820;34280.863
672.714;28393.162;  -12.460;34632.863
673.290;32444.115;  -10.940;35135.422
673.867;32226.279;  -10.510;36114.480
674.443;30319.496;  -12.110;36152.859
675.020;31167.980;  -11.760;35327.238
675.596;32089.250;   -9.380;35795.176
676.173;31793.783;  -11.120;35430.355
676.749;31402.848;  -13.390;33549.516
677.326;30303.828;  -12.600;32210.012
677.902;29154.527;  -10.830;32068.871
678.478;28494.578;  -12.400;32583.891
679.054;29287.176;   -8.610;32088.928
679.631;30153.574;  -11.640;30978.848
680.207;31572.484;   -8.140;33160.887
680.783;32198.639;  -12.300;35570.363
681.359;30911.611;  -10.910;36125.184
681.935;29866.037;  -11.040;35240.922
682.511;29541.553;  -11.130;34429.961
683.087;29417.211;  -11.080;34463.680
683.663;31286.391;  -10.530;34648.898
684.239;31426.879;  -12.120;34546.457
684.815;30012.006;   -8.870;35586.375
685.390;28726.932;   -8.940;35821.895
685.966;28026.125;  -12.109;35085.871
686.542;27324.658;  -13.539;34198.230
687.118;27349.275;  -10.379;32847.707
687.693;27874.896;  -10.189;32794.027
688.269;26895.719;  -12.939;33072.367
688.844;26028.996;   -8.679;33141.664
689.420;27548.852;  -10.919;33965.742
689.995;28203.475;   -7.489;34655.523
690.571;26716.756;  -12.199;33576.742
691.146;26571.684;   -8.979;32657.219
691.722;29023.676;   -9.119;32526.979
692.297;29093.896;  -10.519;33014.617
692.872;28436.137;  -10.629;34012.254
693.448;27763.455;  -12.119;34237.434
694.023;27217.711;   -8.219;34142.672
694.598;25547.369;  -13.209;34132.031
695.173;24347.771;  -11.879;34205.250
695.748;25254.299;  -12.039;32882.488
696.323;25993.961;  -11.779;32864.906
696.898;26512.199;  -10.219;33170.004
697.473;28146.314;  -13.639;32432.984
698.048;29066.262;  -11.239;31649.303
698.623;31121.172;  -10.859;30778.141
699.198;32372.662;  -13.379;31140.119
699.773;32982.723;  -13.409;31764.299
700.348;32803.777;  -12.329;31780.816
700.922;32828.000;   -8.749;32046.375
701.497;32797.266;  -12.449;32603.574
702.072;30945.107;   -8.879;34799.871
702.646;28924.004;  -10.719;35793.172
703.221;28106.656;   -8.469;35201.590
703.795;28998.613;  -11.389;34764.527
704.370;28027.459;  -12.499;34307.367
704.944;26892.006;  -11.449;33509.887
705.519;26177.066;  -10.659;31388.584
706.093;25418.441;  -12.909;31340.104
706.668;25740.152;  -13.509;32630.281
707.242;27257.379;  -10.049;32728.779
707.816;27494.176;  -10.629;32947.238
708.390;26433.676;  -11.829;33277.855
708.965;25346.563;  -11.159;33834.336
709.539;25628.713;  -11.069;33709.273
710.113;24876.568;  -10.908;33044.313
710.687;22819.254;   -9.488;31953.992
711.261;23629.988;  -13.068;30505.949
711.835;26245.189;  -12.748;30262.369
712.409;27461.297;  -10.678;31254.447
712.983;26090.416;  -11.658;32754.986
713.557;25882.588;  -13.718;34018.824
714.131;26693.563;  -13.388;34579.625
714.704;29315.736;   -9.818;33890.262
715.278;31726.813;  -11.818;33531.102
715.852;32574.770;  -11.328;33601.660
716.425;32671.475;   -9.118;33515.117
716.999;32311.896;  -10.188;33185.555
717.573;31138.617;   -9.808;33905.996
718.146;31120.506;  -11.478;35199.293
718.720;30477.076;  -10.998;35060.551
719.293;29960.125;   -9.508;34973.230
719.867;30671.283;  -12.138;36394.449
720.440;30242.330;  -11.288;36663.008
721.013;32840.348;  -11.428;35102.426
721.587;34607.344;  -11.698;33985.266
722.160;35931.441;  -11.608;33524.965
722.733;35007.703;  -11.428;32987.043
723.306;31446.188;  -12.518;33066.301
723.880;30046.057;   -7.408;33399.500
724.453;29992.295;  -11.048;33468.297
725.026;28436.662;  -11.678;33816.637
725.599;27362.469;  -10.978;32797.996
726.172;25503.402;   -8.838;33187.434
726.745;25552.125;  -11.438;35136.613
727.318;27252.896;   -9.828;35751.730
727.891;27700.363;  -10.868;35890.430
728.463;27163.396;  -11.348;34822.090
729.036;25668.143;  -11.608;32895.086
729.609;25175.904;  -14.738;31823.225
730.182;25792.793;   -8.448;31445.283
730.754;26636.529;  -11.228;32373.223
731.327;26911.967;  -12.018;33676.820
731.900;28466.826;  -13.748;33417.000
732.472;29366.379;  -10.928;31978.498
733.045;28779.393;   -9.478;30368.777
733.617;27257.479;  -12.967;30574.215
734.190;26516.615;  -11.707;31280.975
734.762;25633.406;  -11.067;31674.412
735.334;24529.479;  -10.587;31247.291
735.907;23685.438;  -11.947;29876.211
736.479;24348.553;  -11.667;29808.488
737.051;26166.268;  -10.187;30233.547
737.623;27289.313;   -6.887;31469.086
738.195;29139.721;  -12.117;31784.225
738.768;30576.717;  -14.077;32120.523
739.340;28983.961;  -12.207;32094.342
739.912;26491.920;   -8.977;31312.680
740.484;26124.939;  -11.017;31946.238
741.056;29028.400;  -13.517;32984.059
741.628;31752.621;  -11.507;33897.715
742.199;31829.854;   -7.597;33213.016
742.771;30669.135;  -12.227;31369.113
743.343;28561.324;  -12.427;31865.473
743.915;26795.451;   -9.827;32388.631
744.487;26003.912;  -10.007;31079.568
745.058;25082.432;  -11.887;30570.107
745.630;24321.252;  -10.787;29970.127
746.201;23840.867;  -10.887;29186.766
746.773;25140.033;   -9.707;28805.723
747.344;26252.084;  -11.137;29591.223
747.916;25433.865;  -11.887;31412.201
748.487;24620.135;   -9.707;32194.898
749.059;23474.842;  -10.027;32533.719
749.630;22711.834;  -11.787;32158.518
750.201;21982.936;  -12.767;30855.395
750.773;21076.016;  -11.497;28622.555
751.344;22415.053;   -9.937;28405.732
751.915;22138.322;  -11.567;28461.551
752.486;20325.893;  -13.267;27842.850
753.057;19012.156;  -10.627;27845.008
753.628;18776.723;  -11.657;27728.107
754.199;21105.742;  -12.097;27381.086
754.770;22283.594;  -11.447;25882.203
755.341;22386.744;  -11.997;25886.184
755.912;20406.221;  -10.207;26050.861
756.483;18283.549;  -10.937;26798.779
757.054;18772.854;  -11.527;27048.238
757.625;19345.705;  -12.886;26294.838
758.195;19348.879;  -11.226;26142.076
758.766;19673.539;  -12.366;26392.234
759.337;18861.035;  -11.946;26334.594
759.907;18392.385;  -13.856;27579.652
760.478;19597.025;   -9.606;28352.770
761.048;21011.174;  -11.606;27325.088
761.619;21774.287;  -11.036;26460.428
762.189;20706.510;  -12.206;26029.826
762.760;20611.131;   -9.666;26430.145
763.330;21347.469;   -9.796;26670.902
763.900;20224.859;  -10.896;26603.021
764.471;19162.678;  -11.726;25542.740
765.041;19980.727;   -9.656;24358.459
765.611;20486.922;  -11.276;23991.297
766.181;19997.141;  -12.116;24470.236
766.751;19809.793;  -12.376;24845.975
767.321;20029.748;  -11.626;24533.633
767.891;19393.771;  -10.426;24916.492
768.461;17439.936;  -13.456;24776.771
769.031;15127.693;  -11.616;24757.988
769.601;14513.852;  -11.356;24181.088
770.171;14954.103;  -11.586;23670.387
770.741;15965.908;  -12.696;22960.045
771.311;17476.396;  -10.226;22917.523
771.880;18035.971;  -11.146;23562.941
772.450;18305.908;  -11.716;24216.500
773.020;17659.498;  -13.226;24140.398
773.589;16572.996;  -12.586;24414.857
774.159;16051.733;  -10.246;23858.717
774.729;15565.982;  -11.586;22942.135
775.298;15415.144;  -15.926;22324.033
775.867;15661.361;  -10.426;21140.313
776.437;15312.964;  -11.416;20838.092
777.006;13537.877;  -12.766;20599.510
777.576;13594.471;  -13.666;20508.809
778.145;14498.611;  -10.066;20732.947
778.714;14267.913;  -10.276;21062.465
779.283;13768.209;  -12.086;20949.664
779.853;13840.227;  -14.016;20508.623
780.422;13853.788;  -12.376;20649.082
780.991;13341.113;   -9.246;21527.520
781.560;13020.828;   -9.775;22632.658
782.129;13114.916;  -12.495;23048.277
782.698;13262.151;  -11.775;23438.555
783.267;13492.377;  -10.065;23267.734
783.836;14181.960;  -12.455;22415.133
784.404;14413.260;  -13.385;20443.152
784.973;14545.187;  -11.045;19699.150
785.542;14252.317;   -9.505;19763.828
786.111;13436.839;   -9.385;20341.408
786.679;13094.181;  -13.475;20207.967
787.248;12934.599;  -11.245;19516.465
787.817;11748.007;  -12.485;18900.363
788.385;10669.257;  -11.165;17879.121
788.954;11239.610;  -11.755;17658.301
789.522;11995.262;   -9.625;17788.879
790.090;12070.683;   -9.665;18118.277
790.659;11304.257;   -9.295;18338.736
791.227;11479.481;  -12.175;18508.615
791.795;12370.271;  -12.145;17898.254
792.364;12419.807;  -11.575;17295.133
792.932;11590.862;  -11.085;16822.051
793.500;10844.477;  -11.345;17040.148
794.068;10697.858;  -12.565;17179.787
794.636;11682.288;  -12.105;16664.246
795.204;12633.459;  -11.995;16524.545
795.772;12490.789;  -12.615;17274.564
796.340;11953.421;  -12.425;17891.002
796.908;11315.247;  -11.455;17648.561
797.476;10253.690;  -12.165;17064.080
798.044; 9292.869;  -15.795;16672.777
798.612; 9060.563;  -10.985;17023.996
799.180; 9667.129;  -12.055;16561.615
799.747; 9937.537;  -12.525;15962.773
800.315; 9047.272;  -14.765;15296.992
800.883; 7975.746;  -12.435;14801.771
801.450; 7942.543;  -11.295;14534.430
802.018; 8421.095;  -11.185;14173.248
802.585; 8554.907;  -11.625;14029.547
803.153; 7825.832;  -10.665;13836.846
803.720; 7424.739;  -10.275;13567.324
804.287; 7513.556;  -12.865;13360.622
804.855; 7759.665;  -12.324;13681.981
805.422; 7939.122;  -11.574;13536.560
805.989; 7666.770;  -11.004;13355.958
806.556; 7779.677;  -12.214;13747.896
807.124; 8015.901;  -13.304;13987.376
807.691; 7762.301;  -12.034;14038.674
808.258; 7485.552;  -11.014;14120.152
808.825; 7353.523;  -11.804;13860.111
809.392; 7160.854;  -11.544;13268.790
809.959; 7105.496;  -14.954;12680.389
810.526; 7453.919;  -10.214;12427.308
811.093; 7393.195;  -10.754;12030.105
811.659; 6988.718;  -12.194;11653.664
812.226; 6342.872;   -9.194;11637.183
812.793; 6219.709;   -9.644;11611.521
813.360; 6912.464;  -11.544;11885.181
813.926; 7833.598;  -12.814;12770.539
814.493; 7713.723;  -11.524;12677.638
815.060; 7388.377;  -12.254;11974.336
815.626; 7111.960;  -12.114;11594.715
816.193; 6795.848;  -11.994;11579.474
816.759; 6510.646;  -11.464;11666.972
817.325; 6234.109;  -10.444;11325.530
817.892; 6019.090;  -11.124;11105.369
818.458; 6074.747;  -11.864;10843.928
819.024; 6561.792;  -10.634;10714.406
819.591; 6664.611;  -10.554;10469.165
820.157; 6622.915;  -13.334;10235.523
820.723; 6620.375;  -13.044;10847.563
821.289; 6686.400;   -9.664;11040.980
821.855; 6990.281;  -10.994;10357.100
822.421; 7328.795;  -11.784; 9978.918
822.987; 7488.445;  -12.554; 9754.177
823.553; 7446.479;  -12.554;10065.755
824.119; 6983.165;   -8.544;10036.294
824.685; 6137.876;  -12.144;10029.192
825.251; 5761.405;  -12.754;10199.230
825.816; 5439.642;  -11.354; 9820.189
826.382; 5146.641;  -11.004; 9297.248
826.948; 5172.224;  -11.004; 9381.347
827.513; 5319.078;  -12.474; 9450.726
828.079; 5438.326;  -13.084; 9472.444
828.645; 5652.050;  -10.813; 9292.643
829.210; 5595.209;  -11.593; 9065.341
829.776; 5765.331;  -12.633; 9132.620
830.341; 6023.807;  -10.473; 9092.878
830.906; 5805.879;   -8.763; 9078.557
831.472; 5123.529;  -13.453; 8534.535
832.037; 4174.417;  -12.173; 8677.874
832.602; 3928.833;  -14.093; 8628.692
833.167; 4287.606;  -13.593; 8879.031
833.733; 4814.833;  -10.793; 9189.790
834.298; 5125.312;  -14.783; 9052.608
834.863; 4786.370;  -11.023; 8895.087
835.428; 4645.771;  -11.113; 8824.266
835.993; 5060.391;   -9.983; 8845.385
836.558; 5306.562;  -13.003; 8888.563
837.123; 5190.986;  -10.733; 8966.582
837.688; 4822.990;   -9.683; 8617.860
838.253; 4644.646;  -12.253; 8590.699
838.817; 4803.149;  -11.643; 8443.797
839.382; 4913.410;  -11.953; 8799.356
839.947; 4886.340;  -11.443; 8810.595
840.511; 4811.373;  -10.843; 8796.394
841.076; 4899.013;  -13.533; 8347.231
841.641; 5001.608;  -11.743; 8224.330
842.205; 4694.670;  -10.013; 8223.349
842.770; 4426.176;  -11.023; 8622.107
843.334; 4499.235;  -14.273; 8410.386
843.898; 4844.912;  -11.323; 8337.465
844.463; 5303.823;  -10.263; 8506.283
845.027; 5495.105;  -10.353; 8280.962
845.591; 5419.204;  -12.163; 8231.141
846.156; 5211.564;  -12.263; 7969.179
846.720; 5235.718;  -11.553; 7768.278
847.284; 5148.674;  -12.393; 7630.957
847.848; 4422.793;  -12.623; 7472.395
848.412; 3744.547;  -11.863; 7437.394
848.976; 3586.945;  -10.203; 7674.592
849.540; 3709.129;  -10.603; 7836.011
850.104; 3868.298;  -12.423; 7913.669
850.668; 3930.288;  -14.613; 7694.508
851.232; 3802.380;  -12.873; 7756.887
851.796; 3756.009;  -14.192; 7926.545
852.359; 3829.734;  -13.652; 7827.844
852.923; 3805.654;  -11.402; 7641.163
853.487; 3680.158;  -12.022; 7342.501
854.050; 3574.833;  -15.202; 7042.820
854.614; 3574.132;  -14.592; 7151.338
855.177; 3528.500;  -12.572; 7105.077
855.741; 3561.654;   -9.932; 6989.675
856.304; 3679.596;  -12.192; 6596.634
856.868; 3699.549;  -13.462; 6356.272
857.431; 3705.277;  -11.542; 6468.571
857.995; 3725.906;  -12.062; 6373.210
858.558; 3439.856;  -11.142; 6324.448
859.121; 3149.031;  -11.742; 6408.327
859.684; 3016.053;  -10.332; 6347.886
860.247; 3047.889;  -11.962; 6321.264
860.810; 3160.116;  -12.332; 6301.903
861.374; 3106.042;  -10.292; 6607.881
861.937; 2972.219;  -12.062; 6408.200
862.500; 2987.770;  -11.702; 6572.639
863.062; 3098.636;  -13.852; 6387.297
863.625; 3138.086;  -12.972; 6190.836
864.188; 3037.408;  -10.292; 5807.254
864.751; 2950.438;  -12.382; 5682.413
865.314; 2796.797;  -13.232; 5547.492
865.876; 2620.778;  -12.772; 5500.150
866.439; 2461.921;  -11.952; 5415.909
867.002; 2464.315;   -9.332; 5501.567
867.564; 2719.112;  -11.712; 5413.946
868.127; 2854.022;  -12.012; 5160.325
868.689; 2569.566;  -11.882; 5133.183
869.252; 2257.120;  -11.572; 5252.382
869.814; 2172.115;  -10.692; 5297.141
870.377; 2265.197;  -12.392; 5390.919
870.939; 2342.265;  -10.582; 5599.898
871.501; 2355.103;  -12.782; 5248.336
872.063; 2353.483;  -15.612; 4854.235
872.626; 2352.490;  -13.922; 4817.074
873.188; 2243.302;  -13.832; 4987.732
873.750; 2126.260;  -10.962; 4868.651
874.312; 2155.315;  -11.022; 4779.330
874.874; 2166.663;  -13.152; 4866.348
875.436; 2109.586;  -13.401; 4718.887
875.998; 2040.634;   -8.891; 4660.005
876.560; 2004.049;  -12.591; 4462.964
877.122; 1980.107;  -14.531; 4145.042
877.683; 1914.062;  -10.781; 4056.481
878.245; 1827.810;  -14.281; 3950.740
878.807; 1808.602;  -10.311; 4058.958
879.369; 1771.530;  -13.201; 3954.677
879.930; 1765.691;  -12.061; 3941.495
880.492; 1782.033;   -9.181; 4067.014
881.053; 1774.524;  -12.051; 3859.633
881.615; 1713.040;  -11.501; 3776.071
882.176; 1600.256;  -12.221; 3734.750
882.738; 1474.493;   -8.931; 3678.489
883.299; 1377.110;  -13.571; 3405.407
883.860; 1397.687;  -12.331; 3351.106
884.422; 1356.306;  -10.201; 3394.044
884.983; 1216.142;  -12.521; 3166.443
885.544; 1107.050;  -12.291; 3189.802
886.105; 1080.743;  -12.991; 3160.360
886.666; 1083.982;  -12.901; 3093.059
887.227; 1056.554;  -12.061; 2941.957
887.788; 1007.354;  -11.641; 2974.836
888.349;  962.650;  -14.691; 2721.214
888.910;  926.236;   -9.681; 2696.493
889.471;  915.304;   -9.971; 2560.172
890.032;  898.110;  -13.151; 2558.190
890.593;  872.560;  -12.051; 2567.669
891.153;  846.079;  -12.841; 2460.307
891.714;  829.279;  -13.561; 2372.046
892.275;  810.907;  -12.401; 2309.505
892.835;  774.926;  -13.191; 2382.543
893.396;  735.016;  -12.551; 2295.502
893.956;  718.910;  -11.981; 2162.420
894.517;  714.702;  -12.221; 2125.439
895.077;  673.301;  -12.021; 2086.978
895.638;  601.467;  -10.891; 2126.316
896.198;  547.688;  -13.171; 1838.275
896.758;  508.049;  -11.891; 1892.813
897.319;  465.559;  -12.491; 1792.232
897.879;  440.696;  -12.401; 1762.751
898.439;  408.355;  -13.431; 1661.149
898.999;  387.425;  -11.340; 1781.468
899.559;  380.140;  -13.930; 1703.347
900.119;  363.536;  -13.730; 1537.525
900.679;  347.424;   -9.210; 1638.384
901.239;  332.963;  -10.860; 1527.902
901.799;  311.692;  -11.450; 1456.441
902.359;  290.335;  -13.800; 1357.140
902.919;  282.130;  -12.130; 1331.118
903.479;  279.032;  -12.650; 1317.257
904.038;  266.469;  -16.110; 1262.595
904.598;  248.218;  -13.690; 1152.034
905.158;  235.610;  -10.290; 1240.893
905.717;  226.209;  -10.670; 1233.691
906.277;  224.218;  -14.040; 1217.330
906.836;  223.611;  -13.510; 1222.408
907.396;  217.931;  -11.530; 1193.047
907.955;  206.218;  -13.190; 1182.526
908.515;  194.943;  -12.950; 1099.364
909.074;  186.144;  -12.390; 1092.863
909.633;  180.765;  -10.340; 1069.121
910.192;  178.400;  -11.170; 1196.460
910.752;  174.388;  -14.200; 1029.960
911.311;  170.846;  -13.810; 1009.780
911.870;  167.314;  -12.750;  971.460
912.429;  166.473;  -12.380; 1094.080
912.988;  164.341;  -11.930; 1081.060
913.547;  159.781;  -10.990;  940.380
914.106;  155.370;  -11.200;  999.420
914.665;  153.399;  -13.150;  984.020
915.224;  151.773;  -13.310; 1035.760
915.782;  149.504;  -13.340;  922.560
916.341;  149.158;  -10.710; 1049.840
916.900;  146.980;  -12.980;  925.260
917.458;  145.793;  -13.060;  884.220
918.017;  144.047;  -10.900;  942.600
918.576;  143.301;  -11.630;  904.440
919.134;  141.745;  -12.860;  837.980
919.693;  143.732;  -15.160;  893.060
920.251;  142.414;  -13.470;  876.500
920.809;  141.268;  -13.700;  839.580
921.368;  141.391;  -13.420;  885.360
921.926;  142.581;  -14.710;  842.940
922.484;  143.033;  -12.560;  903.360
923.042;  143.163;  -11.930;  880.340
923.601;  143.661;  -10.270;  998.680
924.159;  142.027;  -12.960;  935.560
924.717;  140.464;  -13.040;  841.080
925.275;  141.906;  -12.560;  903.240
925.833;  143.334;  -13.040;  779.320
926.391;  144.696;  -13.360;  938.380
926.949;  144.095;  -13.940;  857.680
927.506;  145.197;   -9.400;  903.500
928.064;  143.429;  -10.940;  877.580
928.622;  143.166;  -13.180;  880.100
929.180;  143.384;  -12.730;  814.180
929.737;  144.684;  -12.840;  808.540
930.295;  148.060;  -11.810;  928.480
930.853;  153.918;  -13.650;  849.100
931.410;  156.905;  -13.580;  821.120
931.968;  158.916;  -12.020;  940.660
932.525;  159.146;  -13.320;  909.380
933.082;  159.164;  -13.800;  811.440
933.640;  163.222;  -11.380;  925.900
934.197;  166.526;  -11.480;  886.360
934.754;  168.226;  -13.220;  897.780
935.312;  166.917;  -14.950;  863.340
935.869;  165.125;  -10.940; 1012.980
936.426;  161.199;  -12.100;  872.800
936.983;  161.584;  -12.930;  889.020
937.540;  162.532;  -14.250;  838.280
938.097;  167.156;  -12.600;  940.120
938.654;  173.179;  -11.260;  898.860
939.211;  175.688;  -13.020;  952.480
939.768;  179.044;  -15.760;  915.420
940.324;  183.548;  -13.920;  904.200
940.881;  179.892;  -11.620;  878.500
941.438;  177.580;   -9.870; 1021.200
941.995;  173.414;  -13.920;  992.560
942.551;  170.007;  -12.830;  875.620
943.108;  169.687;  -11.980;  937.920
943.664;  174.158;  -13.740;  869.340
944.221;  182.079;  -12.670; 1088.140
944.777;  180.635;  -13.250;  869.680
945.334;  176.044;  -13.000;  884.840
945.890;  175.149;  -13.020;  946.480
946.446;  175.841;  -13.880;  947.020
947.003;  176.859;  -12.660;  964.940
947.559;  179.648;   -8.730; 1063.040
948.115;  177.028;  -11.960; 1026.540
948.671;  173.222;  -12.360;  967.300
949.227;  169.848;  -12.700;  859.560
949.783;  165.774;  -13.450;  858.900
950.339;  164.818;  -10.620;  991.000
950.895;  160.846;  -14.770; 1023.840
951.451;  157.633;  -13.650;  925.280
952.007;  159.459;  -11.180;  998.540
952.563;  159.210;  -11.680;  937.780
953.118;  158.659;  -13.280;  904.940
953.674;  160.227;  -12.510;  935.780
954.230;  160.621;  -12.220;  949.640
954.785;  155.742;  -12.190;  936.640
955.341;  150.764;  -12.270;  998.160
955.897;  147.641;  -14.900;  834.660
956.452;  147.825;  -12.520;  953.840
957.008;  145.835;   -9.410; 1083.640
957.563;  144.003;  -11.280; 1009.540
958.118;  140.473;  -13.470;  877.700
958.674;  142.273;  -12.190;  946.780
959.229;  145.030;  -12.760; 1013.980
959.784;  150.024;  -15.710;  832.400
960.339;  156.242;  -12.540; 1001.280
960.894;  155.536;  -11.680;  963.760
961.449;  150.667;  -11.410;  859.960
962.004;  148.485;  -10.430; 1212.840
962.559;  141.707;  -14.040;  860.140
963.114;  136.733;  -14.270;  742.480
963.669;  138.560;  -11.320;  915.500
964.224;  138.442;  -14.620;  874.340
964.779;  137.121;  -14.150;  828.420
965.334;  136.509;  -10.850; 1017.860
965.888;  135.499;  -14.530;  875.360
966.443;  137.202;  -13.520;  972.380
966.998;  134.292;  -13.370;  819.460
967.552;  132.278;   -9.960;  908.380
968.107;  128.549;  -12.360;  868.300
968.661;  130.162;  -12.270;  922.440
969.216;  129.436;  -12.140;  856.280
969.770;  129.299;  -11.860;  917.200
970.324;  129.849;  -12.170;  923.140
970.879;  129.649;  -14.160;  947.180
971.433;  126.112;  -12.940;  952.720
971.987;  121.894;  -10.180;  895.340
972.541;  121.088;  -12.130;  917.100
973.095;  122.959;  -14.980; 1009.460
973.649;  122.568;  -14.480;  809.480
974.203;  125.172;  -13.530;  829.040
974.757;  126.282;  -12.060;  855.220
975.311;  122.509;  -13.240;  872.600
975.865;  118.854;  -12.550;  881.820
976.419;  116.598;  -13.180;  857.400
976.973;  114.223;  -14.100;  849.620
977.526;  112.080;  -13.330;  949.920
978.080;  101.970;  -15.390;  796.780
978.634;   94.506;  -11.670;  921.320
979.187;   84.244;  -10.640;  905.400
979.741;   82.570;  -13.330; 1018.380
980.294;   80.304;  -14.480;  789.160
980.848;   80.309;  -13.420;  717.220
981.401;   81.545;  -12.360;  816.540
981.955;   82.775;  -12.480;  844.300
982.508;   80.470;  -14.000;  746.340
983.061;   81.190;  -10.440;  915.260
983.615;   78.704;  -14.340;  798.800
984.168;   77.308;  -14.950;  770.080
984.721;   79.576;  -13.270;  880.760
985.274;   77.996;  -12.240;  867.500
985.827;   75.527;  -12.720;  834.220
986.380;   72.973;  -14.920;  721.340
986.933;   73.196;  -12.860;  864.800
987.486;   72.402;  -10.440;  861.920
988.039;   71.471;  -11.820;  863.100
988.591;   71.163;  -13.760;  893.260
989.144;   70.175;  -14.080;  737.260
989.697;   69.737;  -13.440;  758.740
990.250;   70.897;  -12.050;  858.100
990.802;   68.714;  -14.550;  755.860
991.355;   70.047;  -10.770;  974.880
991.907;   68.416;  -11.710;  864.320
992.460;   66.785;  -12.650;  753.760
993.012;   66.164;  -13.860;  749.540
993.565;   63.618;  -14.310;  711.360
994.117;   63.444;   -9.920;  950.780
994.669;   58.948;  -13.420;  701.320
995.221;   58.274;  -14.200;  791.920
995.774;   58.806;  -13.400;  787.580
996.326;   57.425;  -11.850;  740.220
996.878;   57.333;  -12.230;  838.420
997.430;   55.489;  -14.260;  699.860
997.982;   54.978;  -11.430;  750.140
998.534;   55.520;  -11.590;  739.060
999.086;   53.613;  -11.960;  738.220
999.638;   54.178;  -13.640;  661.380
1000.190;   53.361;  -13.660;  699.320
1000.741;   52.662;   -9.980;  742.700
1001.293;   51.328;  -11.860;  686.020
1001.845;   50.165;  -14.280;  676.640
1002.396;   51.777;  -12.270;  743.400
1002.948;   51.036;  -13.670;  737.400
1003.500;   49.175;  -12.010;  723.780
1004.051;   50.139;  -11.890;  907.580
1004.603;   49.194;  -11.220;  791.820
1005.154;   45.224;  -13.210;  608.980
1005.705;   43.300;  -11.850;  723.960
1006.257;   44.248;  -13.670;  707.220
1006.808;   43.499;  -12.060;  685.460
1007.359;   43.251;  -10.250;  763.240
1007.910;   41.395;  -13.440;  646.640
1008.461;   41.714;  -13.170;  732.940
1009.013;   40.802;  -14.590;  588.340
1009.564;   41.692;  -12.100;  793.520
1010.115;   39.360;  -14.000;  597.040
1010.665;   39.138;  -15.020;  602.160
1011.216;   39.499;  -12.560;  667.920
1011.767;   38.713;  -11.330;  697.920
1012.318;   39.338;  -11.450;  736.980
1012.869;   37.896;  -11.000;  679.000
1013.419;   38.595;  -11.760;  603.120
1013.970;   38.347;  -11.800;  666.640
1014.521;   37.532;  -14.750;  620.620
1015.071;   38.491;  -14.430;  670.380
1015.622;   36.887;  -14.170;  635.460
1016.172;   35.919;  -11.700;  596.820
1016.723;   35.295;  -13.230;  614.380
1017.273;   35.628;  -16.120;  604.160
1017.823;   36.558;  -13.360;  650.340
1018.374;   35.357;  -13.710;  611.760
1018.924;   35.138;  -11.050;  716.880
1019.474;   35.818;  -14.120;  718.880
1020.024;   34.440;  -12.990;  657.580
1020.574;   35.576;  -12.010;  726.160
1021.124;   34.378;  -12.080;  673.580
1021.674;   33.336;  -15.860;  559.120
1022.224;   34.785;  -11.710;  708.940
1022.774;   33.629;  -13.030;  668.820
1023.324;   34.230;  -11.000;  753.520
1023.874;   35.146;  -13.270;  875.760
1024.423;   33.353;  -14.570;  613.700
1024.973;   32.804;  -12.620;  610.760
1025.523;   32.111;  -12.630;  620.960
1026.072;   31.330;  -14.110;  606.420
1026.622;   31.577;  -15.390;  675.740
1027.172;   32.415;   -9.090;  715.660
1027.721;   30.475;  -12.250;  601.220
1028.270;   30.894;  -15.590;  663.400
1028.820;   31.777;  -13.840;  638.080
1029.369;   30.466;  -13.170;  612.700
1029.918;   30.556;  -14.080;  649.840
1030.468;   30.137;  -13.860;  564.780
1031.017;   31.413;  -12.970;  634.800
1031.566;   29.303;  -12.320;  608.900
1032.115;   29.636;  -13.140;  694.500
1032.664;   28.999;  -14.560;  596.480
1033.213;   30.419;  -11.620;  735.420
1033.762;   29.159;  -13.190;  635.620
1034.311;   28.472;  -13.460;  677.220
1034.860;   29.590;  -15.770;  691.000
1035.408;   28.849;  -13.100;  722.720
1035.957;   29.628;  -12.880;  719.540
1036.506;   27.179;  -13.640;  530.800
1037.055;   29.749;  -12.420;  844.320
1037.603;   28.668;  -13.740;  664.000
1038.152;   26.588;  -13.840;  534.760
1038.700;   26.562;  -10.770;  585.740
1039.249;   26.787;  -13.520;  681.220
1039.797;   27.294;  -13.060;  633.360
1040.345;   27.204;  -11.760;  705.420
1040.894;   26.425;  -10.790;  625.300
1041.442;   26.756;  -15.420;  632.200
1041.990;   24.949;  -14.550;  559.160
1042.538;   24.831;  -15.620;  536.180
1043.087;   24.714;  -14.940;  570.860
1043.635;   26.854;  -12.100;  670.500
1044.183;   25.426;  -13.200;  586.400
1044.731;   25.435;  -11.630;  576.000
1045.279;   24.861;  -14.200;  674.920
1045.827;   27.930;  -12.510;  892.400
1046.374;   23.676;  -14.960;  515.420
1046.922;   23.698;  -11.850;  590.580
1047.470;   24.919;  -13.770;  691.300
1048.018;   24.555;  -15.380;  647.960
1048.565;   26.078;  -14.010;  708.600
1049.113;   23.565;  -14.620;  557.000
1049.660;   23.463;  -14.940;  629.660
1050.208;   23.826;  -14.540;  675.640
1050.755;   23.338;  -13.710;  606.580
1051.303;   23.720;  -11.880;  686.820
1051.850;   22.591;  -12.160;  635.120
1052.397;   20.807;  -15.110;  473.960
1052.945;   23.001;  -14.770;  617.760
1053.492;   23.373;  -12.320;  741.840
1054.039;   23.658;  -13.290;  720.180
1054.586;   22.305;  -15.210;  557.240
1055.133;   22.849;  -12.920;  693.140
1055.680;   22.562;  -12.610;  646.620
1056.227;   20.932;  -12.620;  542.780
1056.774;   23.982;  -13.010;  794.980
1057.321;   21.308;  -16.180;  523.260
1057.868;   21.719;  -11.230;  651.320
1058.415;   20.892;  -10.890;  651.980
1058.961;   21.592;  -12.530;  678.940
1059.508;   21.520;  -14.120;  643.820
1060.055;   20.942;  -13.340;  581.780
1060.601;   21.041;  -12.920;  624.300
1061.148;   21.013;  -14.430;  616.820
1061.694;   20.475;  -14.140;  592.580
1062.241;   20.609;  -12.550;  596.320
1062.787;   20.472;  -13.370;  663.140
1063.334;   22.172;  -12.260;  808.560
1063.880;   20.486;  -10.800;  668.360
1064.426;   20.016;   -9.920;  706.820
1064.972;   19.150;  -12.970;  601.340
1065.518;   18.103;  -14.440;  566.640
1066.065;   19.494;  -12.680;  624.460
1066.611;   18.575;  -13.520;  598.800
1067.157;   18.917;  -11.100;  641.860
1067.703;   19.067;  -14.100;  668.480
1068.249;   19.608;  -13.750;  605.220
1068.794;   19.026;  -11.070;  626.880
1069.340;   17.031;  -13.210;  578.960
1069.886;   18.356;  -14.850;  590.700
1070.432;   17.433;  -14.580;  541.720
1070.977;   17.445;  -12.930;  601.080
1071.523;   17.302;  -11.970;  573.060
1072.068;   16.797;  -13.730;  582.000
1072.614;   17.376;  -14.550;  527.760
1073.160;   18.808;  -13.690;  687.040
1073.705;   16.646;  -14.780;  572.520
1074.250;   16.575;  -15.430;  559.900
1074.796;   17.902;  -11.620;  655.160
1075.341;   18.240;  -11.580;  664.100
1075.886;   16.546;  -13.190;  594.240
1076.431;   16.727;  -13.630;  649.880
1076.976;   16.925;  -11.670;  639.220
1077.521;   16.116;  -11.600;  583.080
1078.067;   15.015;  -13.920;  579.400
1078.612;   16.226;  -12.910;  661.620
1079.156;   15.895;  -15.340;  601.540
1079.701;   15.564;  -12.560;  693.260
1080.246;   16.786;  -12.490;  696.300
1080.791;   16.308;  -14.550;  625.020
1081.336;   16.415;  -15.210;  659.320
1081.880;   16.333;  -11.280;  649.680
1082.425;   15.108;  -12.830;  573.480
1082.970;   16.929;  -11.680;  717.040
1083.514;   15.215;  -15.500;  597.000
1084.059;   14.289;  -11.770;  586.720
1084.603;   14.108;  -13.480;  565.840
1085.147;   15.139;  -13.940;  645.220
1085.692;   15.846;  -13.170;  716.800
1086.236;   13.340;  -15.740;  503.140
1086.780;   15.769;  -10.750;  751.440
1087.325;   14.695;  -14.900;  654.620
1087.869;   14.258;  -15.160;  610.700
1088.413;   15.096;  -11.030;  705.040
1088.957;   12.134;  -15.210;  543.400
1089.501;   15.079;  -12.310;  766.640
1090.045;   15.407;  -12.790;  726.480
1090.589;   12.156;  -14.040;  569.920
1091.133;   13.148;  -12.800;  673.340
1091.676;   13.356;  -13.600;  591.940
1092.220;   13.483;  -12.960;  600.920
1092.764;   14.368;  -10.830;  706.960
1093.307;   13.408;  -12.390;  673.780
1093.851;   11.966;  -15.850;  556.540
1094.395;   13.745;  -12.980;  683.140
1094.938;   12.221;  -13.670;  632.520
1095.482;   11.841;  -12.740;  559.800
1096.025;   14.088;  -13.340;  710.880
1096.568;   13.938;  -10.500;  779.280
1097.112;    9.869;  -13.500;  508.180
1097.655;   12.454;  -13.060;  603.000
1098.198;   11.221;  -13.240;  600.180
1098.741;   10.619;  -15.490;  612.860
1099.285;   11.326;  -13.410;  657.300
1099.828;    9.359;  -15.640;  439.400
1100.371;   10.842;  -13.980;  608.160
1100.914;   10.982;  -13.990;  682.660
1101.457;   11.914;  -15.030;  679.900
1101.999;   10.694;  -12.480;  584.680
1102.542;   11.465;  -12.410;  641.440
1103.085;   11.316;  -14.730;  658.500
1103.628;   11.414;  -12.190;  762.060
1104.170;    9.970;  -12.360;  588.280
1104.713;   10.403;  -13.350;  646.700
1105.256;   10.177;  -14.930;  557.440
1105.798;    9.436;  -15.150;  499.980
1106.341;   10.966;  -13.230;  728.900
1106.883;    9.166;  -14.680;  521.340
1107.425;   10.614;  -14.810;  668.180
1107.968;    8.864;  -12.940;  612.380
1108.510;   10.306;  -10.550;  684.960
1109.052;    8.297;  -15.640;  612.620
1109.594;    8.899;  -14.440;  554.440
1110.136;   10.052;  -11.380;  643.220
1110.679;    8.171;  -13.090;  633.080
1111.221;    8.875;  -14.230;  604.460
1111.763;    8.877;  -14.260;  559.220
1112.304;    8.450;  -14.510;  547.140
1112.846;    8.903;  -14.700;  666.240
1113.388;   11.922;  -12.270;  942.180
1113.930;    9.259;  -13.340;  694.200
1114.472;    7.972;  -12.560;  606.540
1115.013;    7.271;  -14.280;  551.280
1115.555;    7.227;  -14.010;  587.100
1116.097;    7.498;  -14.730;  579.480
1116.638;    8.142;  -12.160;  684.600
1117.180;    8.286;  -14.320;  667.740
1117.721;    6.741;  -15.730;  568.580
1118.262;    8.216;  -13.480;  677.960
1118.804;    7.978;  -11.530;  637.340
1119.345;    7.095;  -13.540;  578.400
1119.886;    8.345;  -14.470;  704.040
1120.427;    6.979;  -13.030;  589.020
1120.969;    6.362;  -13.150;  597.920
1121.510;    6.306;  -13.940;  563.060
1122.051;    7.593;  -12.310;  723.580
1122.592;    6.673;  -13.870;  655.420
1123.133;    4.819;  -12.890;  547.940
1123.673;    7.108;  -13.300;  706.480
1124.214;    6.436;  -14.000;  612.460
1124.755;    7.311;  -13.210;  639.460
1125.296;    6.772;  -13.450;  627.320
1125.836;    8.022;  -12.610;  691.500
1126.377;    5.990;  -15.840;  599.660
1126.918;    7.144;  -11.830;  614.980
1127.458;    6.059;  -11.830;  622.220
1127.999;    6.751;  -11.490;  656.980
1128.539;    6.048;  -12.900;  694.240
1129.079;    5.394;  -14.910;  632.720
1129.620;    5.150;  -12.920;  558.100
1130.160;    4.893;  -14.640;  539.480
1130.700;    5.825;  -13.270;  640.840
1131.240;    6.089;  -14.110;  643.700
1131.781;    5.612;  -13.130;  619.680
1132.321;    4.166;  -15.220;  599.120
1132.861;    4.162;  -15.670;  564.200
1133.401;    4.724;  -13.970;  593.940
1133.941;    5.481;  -13.740;  626.280
1134.481;    3.838;  -13.200;  597.580
1135.020;    3.872;  -14.830;  609.160
1135.560;    5.182;  -14.590;  674.940
1136.100;    3.598;  -13.730;  501.160
1136.640;    3.361;  -15.240;  510.480
1137.179;    3.647;  -14.710;  537.960
1137.719;    4.057;  -14.090;  605.400
1138.258;    3.860;  -12.470;  587.360
1138.798;    3.923;  -12.580;  663.780
1139.337;    3.382;  -16.480;  482.840
1139.877;    4.632;  -13.970;  642.360
1140.416;    6.299;   -9.870;  878.060
1140.955;    3.034;  -14.860;  535.380
1141.494;    4.312;  -14.530;  669.280
1142.034;    3.300;  -13.940;  583.520
1142.573;    4.056;  -11.160;  646.280
1143.112;    3.144;  -15.050;  553.480
1143.651;    3.094;  -15.390;  536.480
1144.190;    4.172;  -12.990;  691.640
1144.729;    2.516;  -12.220;  607.420
1145.267;    2.953;  -14.020;  584.900
1145.806;    4.034;  -12.740;  637.040
1146.345;    3.335;  -14.810;  635.020
1146.884;    2.733;  -12.920;  622.500
1147.422;    2.082;  -13.930;  533.060
1147.961;    4.207;  -11.830;  708.460
1148.500;    4.222;  -12.710;  669.720
1149.038;    3.600;  -14.420;  632.500
1149.577;    2.804;  -13.920;  698.640
1150.115;    0.576;  -17.050;  452.280
1150.653;    2.401;  -14.890;  607.340
1151.192;    2.436;  -15.270;  552.920
1151.730;    2.507;  -13.160;  652.560
1152.268;    1.877;  -15.430;  589.520
1152.806;    1.577;  -15.880;  571.180
1153.344;    0.839;  -13.240;  577.640
1153.882;    2.356;  -13.010;  600.060
1154.421;    0.357;  -16.180;  470.620
1154.958;    1.203;  -13.880;  595.240
1155.496;    3.137;  -13.590;  645.280
1156.034;    1.745;  -11.910;  721.880
1156.572;    2.359;  -12.010;  667.060
1157.110;    0.712;  -16.250;  473.940
1157.647;    2.739;  -15.230;  676.960
1158.185;    0.768;  -13.770;  564.320
1158.723;   -0.211;  -15.300;  509.200
1159.260;    2.111;  -13.130;  701.700
1159.798;    1.739;  -11.300;  658.160
1160.335;    0.808;  -13.210;  631.820

