
Integration time [ms]:   3.882
Averaging Nr. [scans]: 1000
Smoothing Nr. [pixels]: 0
Data measured with spectrometer [name]: 7414430SP
Wave   ;Sample   ;Dark     ;Reference
[nm]   ;[counts] ;[counts] ;[counts] 

288.544;  141.189;    7.153;  793.890
289.143;  145.392;    8.402;  681.602
289.742;  145.392;    7.062;  828.814
290.341;  132.283;    0.191;  789.841
290.940;  122.843;    0.321;  730.702
291.538;  123.035;    3.811;  881.108
292.137;  121.599;   -3.438;  792.581
292.736;  126.188;   -2.809;  975.101
293.335;  122.011;   -5.239;  735.086
293.934;  122.599;   -4.939;  781.677
294.532;  123.433;   -2.199; 1031.958
295.131;  110.325;   -6.831;  834.394
295.730;  109.468;   -6.620;  809.588
296.328;  106.882;   -6.471;  783.442
296.927;  105.919;   -6.571;  779.652
297.525;  108.393;   -7.391;  781.236
298.124;   99.454;   -9.402;  654.009
298.722;  102.859;   -5.781;  761.933
299.321;  101.725;   -6.351;  708.597
299.919;   99.710;   -8.661;  751.918
300.518;   94.513;  -11.922;  689.338
301.116;   95.893;   -6.941;  691.381
301.715;   95.877;   -5.471;  730.222
302.313;   96.728;   -8.361;  704.943
302.911;   92.004;   -9.082;  733.830
303.509;   96.833;   -4.571;  925.627
304.108;   93.977;   -7.111;  760.383
304.706;   94.670;   -7.681;  801.664
305.304;   89.351;   -9.162;  796.707
305.902;   93.283;   -6.761;  784.484
306.500;   88.872;   -6.921;  728.200
307.098;   88.862;   -6.491;  746.560
307.696;   86.204;   -6.941;  780.432
308.294;   86.740;   -6.301;  731.359
308.892;   88.599;   -4.771;  759.769
309.490;   85.727;   -5.141;  712.161
310.088;   83.871;   -2.912;  788.444
310.686;   87.751;   -0.421;  821.749
311.284;   83.452;   -3.461;  766.040
311.882;   81.927;   -6.282;  731.225
312.480;   78.930;   -3.632;  697.167
313.078;   80.061;   -2.112;  808.331
313.675;   80.393;   -1.931;  691.600
314.273;   75.903;   -1.442;  797.837
314.871;   75.230;   -3.002;  589.829
315.468;   72.932;   -2.252;  652.090
316.066;   76.023;   -1.091;  694.427
316.664;   70.574;   -4.512;  656.351
317.261;   74.250;   -0.062;  910.128
317.859;   68.735;   -0.952;  768.735
318.456;   69.952;    0.719;  830.096
319.054;   66.542;   -4.002;  787.828
319.651;   65.538;   -4.972;  759.928
320.249;   63.772;   -1.162;  810.188
320.846;   61.689;   -2.651;  714.286
321.443;   60.263;   -3.832;  832.135
322.041;   57.698;   -4.312;  812.315
322.638;   54.749;   -3.872;  701.456
323.235;   56.783;   -4.361;  665.683
323.833;   54.559;   -4.821;  740.354
324.430;   49.915;   -6.971;  615.900
325.027;   51.212;   -4.361;  876.855
325.624;   50.752;   -5.581;  644.532
326.221;   49.138;   -6.601;  689.717
326.818;   46.977;   -7.301;  818.332
327.415;   50.313;   -6.180;  748.828
328.012;   49.636;   -5.920;  690.585
328.609;   48.772;   -8.390;  731.389
329.206;   46.216;   -6.121;  778.621
329.803;   45.459;   -5.241;  737.841
330.400;   48.611;   -7.420;  704.260
330.997;   49.909;   -5.931;  817.147
331.594;   47.588;   -5.641;  788.185
332.191;   51.677;   -6.451;  728.722
332.787;   55.587;   -4.651;  844.463
333.384;   54.040;   -5.472;  763.093
333.981;   50.707;   -6.303;  815.687
334.578;   53.585;   -5.892;  708.378
335.174;   55.730;   -4.102;  731.469
335.771;   56.112;   -8.053;  836.456
336.367;   52.308;   -7.363;  710.631
336.964;   54.969;   -6.243;  793.266
337.561;   54.899;   -5.653;  731.112
338.157;   50.931;   -7.074;  911.916
338.754;   46.875;   -5.474;  796.589
339.350;   46.633;   -5.624;  722.493
339.946;   49.167;   -5.054;  773.135
340.543;   41.762;   -6.695;  846.136
341.139;   36.325;   -6.215;  720.836
341.735;   35.080;   -5.746;  772.593
342.332;   33.915;   -7.335;  691.472
342.928;   33.868;   -4.835;  795.394
343.524;   27.446;   -4.586;  761.684
344.120;   25.221;   -3.946;  738.562
344.716;   27.816;   -4.835;  723.717
345.313;   26.316;   -5.325;  795.342
345.909;   20.892;   -6.535;  627.336
346.505;   23.353;   -4.725;  740.247
347.101;   23.280;   -4.164;  827.864
347.697;   24.181;   -5.274;  785.398
348.293;   18.617;   -7.145;  627.244
348.889;   19.208;   -4.364;  745.914
349.485;   18.280;   -6.404;  688.205
350.081;   19.889;   -7.534;  772.592
350.676;   15.148;   -6.995;  691.606
351.272;   19.328;   -3.544;  809.530
351.868;   18.851;   -5.324;  780.497
352.464;   17.131;   -7.204;  723.932
353.059;   12.768;   -6.894;  646.017
353.655;   15.854;   -3.754;  777.063
354.251;   16.727;   -6.143;  759.845
354.846;   12.915;   -9.464;  740.646
355.442;    9.423;   -7.555;  753.071
356.038;   11.220;   -5.474;  751.708
356.633;   11.287;   -5.914;  728.594
357.229;   10.897;   -8.944;  724.757
357.824;    8.915;   -6.794;  703.600
358.420;    6.746;   -5.754;  679.726
359.015;    7.910;   -5.664;  695.357
359.610;    9.288;   -8.004;  763.920
360.206;    2.957;   -8.815;  603.240
360.801;    5.824;   -8.834;  646.503
361.396;    8.078;   -6.274;  725.975
361.992;    4.745;   -8.574;  668.220
362.587;    1.001;   -9.265;  670.160
363.182;    3.207;   -5.484;  689.631
363.777;    3.966;   -5.164;  738.242
364.372;    4.474;   -6.954;  737.314
364.967;    0.243;   -7.065;  680.744
365.563;    4.444;   -5.684;  815.567
366.158;    1.416;   -6.484;  685.161
366.753;    3.015;   -8.004;  649.263
367.348;    0.899;  -10.114;  746.056
367.942;    0.510;   -7.764;  697.298
368.537;   -0.312;   -4.554;  754.245
369.132;    0.638;   -7.664;  703.428
369.727;   -4.279;   -8.905;  638.079
370.322;   -2.811;   -4.945;  580.186
370.917;   -2.561;   -7.095;  710.646
371.511;    1.534;   -6.574;  861.834
372.106;   -3.156;   -6.515;  776.964
372.701;   -6.448;   -8.225;  585.988
373.296;   -0.861;   -4.494;  863.135
373.890;   -5.951;   -7.965;  647.840
374.485;   -8.106;   -9.745;  691.199
375.079;   -4.181;   -5.554;  738.685
375.674;   -2.261;   -4.724;  812.970
376.268;   -5.942;   -8.365;  691.759
376.863;  -12.529;   -8.126;  580.327
377.457;   -6.183;   -6.045;  662.490
378.052;   -7.240;   -6.835;  764.884
378.646;   -7.511;   -9.375;  741.167
379.240;   -8.729;   -6.185;  721.176
379.835;   -8.991;   -6.135;  636.978
380.429;  -10.134;   -8.365;  562.557
381.023;   -8.947;   -7.935;  779.205
381.617;  -12.744;   -8.325;  680.106
382.212;   -9.446;   -7.405;  685.303
382.806;   -7.773;   -4.155;  760.690
383.400;  -11.968;   -8.945;  672.281
383.994;  -12.740;   -8.365;  664.870
384.588;   -9.113;   -7.824;  697.701
385.182;   -7.956;   -7.984;  726.624
385.776;   -8.682;  -10.404;  706.875
386.370;  -11.813;   -7.335;  681.968
386.964;  -11.465;   -7.485;  684.155
387.558;   -9.278;   -8.174;  598.360
388.152;  -12.144;  -10.415;  681.959
388.745;  -10.740;   -9.595;  814.707
389.339;   -9.676;   -6.454;  747.642
389.933;   -8.926;   -5.804;  695.370
390.527;   -8.970;   -6.854;  859.029
391.120;  -15.800;   -7.665;  595.318
391.714;  -13.112;   -7.245;  711.633
392.308;   -8.843;   -4.514;  780.253
392.901;  -12.831;   -7.935;  642.460
393.495;  -14.366;   -8.585;  595.414
394.089;  -11.887;   -5.245;  760.452
394.682;  -13.233;   -6.305;  697.188
395.275;  -13.941;   -9.335;  719.927
395.869;  -14.928;   -7.375;  667.314
396.462;  -13.598;   -7.055;  616.609
397.056;   -9.327;   -5.434;  776.621
397.649;  -13.128;   -9.525;  731.575
398.242;  -10.586;   -7.574;  712.645
398.836;  -10.864;   -5.134;  766.408
399.429;  -11.807;   -6.544;  631.041
400.022;  -14.766;   -9.215;  665.902
400.615;  -12.117;   -8.105;  805.609
401.208;  -11.390;   -7.614;  691.451
401.802;  -12.979;   -8.085;  699.329
402.395;  -13.725;   -9.575;  683.502
402.988;  -15.406;   -9.285;  696.627
403.581;  -12.321;   -7.514;  646.878
404.174;   -9.772;   -6.404;  686.568
404.767;  -11.731;   -8.775;  638.583
405.360;  -14.771;   -7.415;  621.445
405.953;   -9.818;   -5.624;  759.034
406.545;   -8.560;   -6.474;  725.342
407.138;  -12.540;   -8.445;  618.350
407.731;  -11.734;  -10.044;  613.303
408.324;   -8.168;   -8.484;  660.554
408.917;   -8.453;   -7.624;  681.864
409.509;  -10.242;   -8.304;  740.396
410.102;  -12.829;   -8.495;  643.948
410.695;   -6.537;   -7.824;  665.758
411.287;   -7.548;   -7.754;  599.821
411.880;   -8.307;   -9.294;  585.421
412.472;  -11.064;   -8.814;  613.092
413.065;   -8.543;   -6.674;  629.408
413.657;   -6.227;   -9.664;  576.678
414.250;   -5.038;  -10.264;  646.681
414.842;   -7.985;   -8.664;  676.353
415.434;   -6.073;   -8.584;  570.463
416.027;   -1.712;   -9.423;  652.196
416.619;   -3.410;  -10.764;  713.400
417.211;   -4.039;   -7.404;  599.352
417.804;   -1.109;   -7.383;  628.499
418.396;   -4.225;   -8.334;  607.643
418.988;   -1.848;   -9.633;  659.238
419.580;   -5.176;  -10.554;  568.276
420.172;   -3.961;   -8.683;  536.196
420.764;    0.774;   -9.713;  672.482
421.356;    0.596;  -11.303;  636.898
421.948;   -1.327;   -8.453;  677.661
422.540;    3.663;   -5.793;  680.027
423.132;    2.786;   -7.162;  600.641
423.724;   -0.541;   -7.933;  561.267
424.316;    1.973;   -9.083;  621.345
424.908;    5.029;   -8.392;  591.517
425.500;    6.751;   -8.062;  647.978
426.092;    6.984;   -9.692;  648.268
426.683;    5.453;   -8.223;  684.836
427.275;    8.672;   -8.602;  641.471
427.867;    9.559;   -8.382;  668.948
428.458;   11.046;  -10.472;  732.344
429.050;    9.023;   -9.112;  680.749
429.642;   10.636;   -7.752;  743.124
430.233;   11.134;   -8.832;  569.356
430.825;   13.763;   -8.292;  724.809
431.416;   10.396;   -7.522;  698.241
432.008;   13.903;   -9.262;  651.723
432.599;   14.639;   -6.441;  656.073
433.190;   12.273;   -9.222;  637.670
433.782;   11.510;  -11.832;  590.395
434.373;   18.740;   -7.121;  884.765
434.964;   17.248;   -9.141;  602.920
435.556;   16.113;   -9.332;  634.537
436.147;   18.398;   -8.892;  758.490
436.738;   17.589;   -8.151;  701.099
437.329;   22.824;   -8.281;  721.723
437.920;   16.740;   -9.062;  666.688
438.511;   16.104;  -11.182;  564.526
439.103;   22.559;   -7.461;  623.998
439.694;   24.103;   -8.541;  681.583
440.285;   25.525;   -7.351;  764.432
440.876;   24.438;   -8.201;  845.738
441.466;   22.653;  -10.381;  575.162
442.057;   27.710;   -7.620;  665.814
442.648;   27.065;   -8.461;  746.255
443.239;   25.480;   -8.991;  620.477
443.830;   30.113;   -7.910;  704.958
444.421;   32.318;   -7.340;  655.474
445.011;   29.157;   -8.981;  693.619
445.602;   28.752;   -9.341;  743.126
446.193;   29.388;  -11.390;  488.117
446.783;   35.314;  -11.240;  640.397
447.374;   30.925;   -8.471;  692.759
447.964;   31.215;   -8.471;  713.770
448.555;   39.274;   -6.590;  822.742
449.145;   35.395;   -8.200;  662.853
449.736;   37.314;  -11.040;  803.179
450.326;   36.495;   -9.640;  713.626
450.917;   41.809;   -9.480;  675.324
451.507;   40.715;   -8.020;  600.661
452.097;   42.181;  -10.210;  746.267
452.688;   42.077;   -7.810;  742.160
453.278;   42.160;   -9.360;  566.840
453.868;   47.118;   -8.669;  793.550
454.458;   46.064;  -10.950;  651.141
455.048;   45.874;  -10.200;  711.783
455.639;   45.797;   -9.369;  567.096
456.229;   50.014;   -7.739;  710.694
456.819;   53.093;   -8.939;  751.158
457.409;   52.497;   -7.169;  773.993
457.999;   55.197;   -7.779;  737.505
458.589;   55.223;   -7.039;  686.606
459.179;   55.512;   -9.019;  717.658
459.769;   53.621;   -8.909;  627.099
460.358;   57.528;   -8.659;  797.262
460.948;   57.900;   -8.209;  689.503
461.538;   60.649;   -9.879;  660.677
462.128;   58.293;   -9.379;  664.934
462.717;   64.180;   -9.158;  710.326
463.307;   67.273;   -8.638;  705.846
463.897;   62.819;   -8.869;  656.942
464.486;   62.690;   -7.409;  837.128
465.076;   66.927;   -9.618;  733.776
465.666;   70.390;   -7.578;  652.900
466.255;   68.797;   -9.369;  785.651
466.845;   67.750;  -10.049;  666.749
467.434;   70.721;   -8.168;  725.873
468.023;   71.325;   -9.188;  658.357
468.613;   70.068;   -9.849;  713.946
469.202;   74.087;  -12.958;  646.507
469.791;   78.194;   -9.488;  737.811
470.381;   79.329;   -6.468;  742.813
470.970;   80.372;  -10.248;  711.099
471.559;   79.454;  -11.428;  733.291
472.148;   83.352;   -9.738;  675.737
472.738;   85.778;   -7.877;  765.466
473.327;   85.251;  -11.868;  637.529
473.916;   84.913;   -8.578;  737.446
474.505;   88.783;  -11.137;  751.703
475.094;   91.192;   -9.407;  806.570
475.683;   91.721;   -9.977;  797.699
476.272;   92.386;  -10.807;  730.632
476.861;   95.424;  -11.017;  706.754
477.449;  101.622;  -10.316;  728.487
478.038;   96.814;  -10.187;  692.513
478.627;   97.851;  -12.458;  714.852
479.216;  103.919;  -10.127;  769.441
479.805;  107.634;   -6.256;  783.375
480.393;  108.204;   -8.737; 1008.945
480.982;  107.246;   -9.087;  874.501
481.571;  112.696;   -7.806;  858.333
482.159;  112.671;  -10.596;  705.386
482.748;  113.527;  -11.507;  821.385
483.336;  118.273;   -8.366;  858.209
483.925;  118.699;   -7.497;  774.373
484.513;  125.894;   -8.326;  758.962
485.102;  123.277;  -10.277;  810.965
485.690;  131.736;   -8.256; 1011.050
486.278;  133.278;   -7.146;  979.329
486.867;  134.275;   -7.986;  809.662
487.455;  136.106;   -9.926;  898.229
488.043;  137.726;  -10.026;  748.361
488.631;  146.889;   -7.226; 1005.079
489.220;  151.168;   -8.696;  908.626
489.808;  152.422;  -12.276;  741.415
490.396;  161.460;   -9.386;  914.645
490.984;  167.337;   -8.506;  830.161
491.572;  178.687;   -8.226;  940.315
492.160;  187.351;   -9.836;  919.081
492.748;  200.252;  -10.316;  884.341
493.336;  223.877;   -7.146; 1019.693
493.924;  252.557;   -7.965;  958.077
494.512;  287.264;  -10.316; 1066.638
495.100;  331.902;  -10.186; 1103.280
495.687;  403.977;   -7.805; 1206.373
496.275;  484.818;   -9.686; 1150.796
496.863;  588.312;  -11.566; 1281.171
497.451;  696.919;  -11.406; 1386.805
498.038;  826.653;   -8.235; 1556.729
498.626;  974.608;   -7.485; 1741.407
499.214; 1181.457;   -8.646; 2016.609
499.801; 1477.549;   -9.936; 2220.633
500.389; 1752.657;   -8.056; 2312.494
500.976; 1961.035;   -6.166; 2744.849
501.564; 2218.243;   -9.126; 3148.565
502.151; 2633.761;  -12.456; 3515.999
502.738; 3137.691;  -10.056; 3971.274
503.326; 3635.243;  -10.605; 4403.796
503.913; 4086.915;  -10.576; 5161.749
504.500; 4716.021;   -9.056; 5986.420
505.088; 5252.070;  -10.136; 6381.201
505.675; 6075.054;   -9.075; 6925.547
506.262; 6643.682;  -11.346; 7619.060
506.849; 7587.241;   -9.376; 8733.969
507.436; 8372.827;   -7.365; 9790.121
508.023; 8289.100;   -8.686; 9985.472
508.610; 8588.883;   -8.846;10434.618
509.197; 9608.135;   -9.077;11198.435
509.784;11355.234;  -10.246;12391.194
510.371;12674.691;   -9.825;13603.713
510.958;13929.051;  -10.896;14426.586
511.545;14597.649;   -9.006;15243.775
512.132;14239.409;   -8.765;15945.876
512.719;15124.629;   -8.286;16340.369
513.305;17262.846;   -9.256;18011.766
513.892;19647.777;  -11.106;19754.971
514.479;23189.094;   -8.576;20967.805
515.066;26172.020;   -9.046;22299.793
515.652;26739.377;  -10.676;22908.660
516.239;27370.186;  -10.166;23798.875
516.825;27030.402;  -11.266;25567.275
517.412;26463.221;   -7.446;28154.959
517.998;25806.660;  -10.916;28344.111
518.585;25052.252;   -9.166;27134.219
519.171;24200.080;  -10.135;27268.576
519.758;25338.324;   -8.806;28964.129
520.344;28629.709;   -6.716;30664.494
520.930;31104.201;  -10.166;32550.605
521.516;31599.129;   -9.615;35422.895
522.103;34488.344;   -8.656;38280.004
522.689;35422.449;   -9.646;37835.117
523.275;34740.938;  -10.786;37288.613
523.861;37884.180;   -9.266;37281.395
524.447;38716.613;   -8.285;37846.949
525.033;37830.293;   -9.426;38321.949
525.619;36990.488;   -9.836;38579.285
526.205;38318.035;   -8.136;40622.875
526.791;38840.309;   -9.986;42258.836
527.377;39462.789;   -8.236;42966.902
527.963;38645.613;  -12.117;42018.949
528.549;37218.922;   -8.376;42476.828
529.135;38626.996;   -8.696;41854.852
529.721;41553.246;   -9.686;41237.711
530.306;43305.305;   -8.616;41259.445
530.892;45268.344;   -9.396;41506.047
531.478;46079.012;   -9.926;43559.613
532.063;46786.688;  -10.236;47695.563
532.649;48628.996;   -8.257;50808.324
533.235;49626.176;  -11.476;51787.500
533.820;49036.184;   -8.156;52145.035
534.406;49748.785;  -12.257;51133.488
534.991;46337.863;   -8.686;49996.805
535.576;43516.055;   -9.426;48882.852
536.162;43058.059;   -8.436;46942.285
536.747;43063.961;  -10.957;45711.746
537.333;42248.715;  -13.147;48510.180
537.918;45400.910;   -9.027;50439.891
538.503;47609.879;   -8.256;50863.711
539.088;48886.355;  -10.576;50906.922
539.673;49785.797;  -10.907;52621.965
540.259;50862.730;   -9.126;52368.094
540.844;49516.445;   -9.026;50879.109
541.429;49840.926;   -9.597;52077.777
542.014;52534.383;  -11.447;52716.695
542.599;54069.992;   -9.236;52363.281
543.184;53521.266;  -12.267;53187.137
543.769;54209.137;  -10.367;54697.605
544.354;53907.617;  -10.887;53913.914
544.938;47531.355;  -11.687;49680.164
545.523;42639.891;   -8.286;47386.277
546.108;44027.234;   -9.317;49151.949
546.693;44226.258;  -10.187;51384.637
547.278;41958.406;   -9.926;51853.254
547.862;41464.430;   -9.196;51173.750
548.447;42206.578;   -9.657;51691.395
549.031;44666.098;   -9.127;52456.703
549.616;46293.898;  -10.836;52714.516
550.201;47048.324;   -8.507;52414.598
550.785;49117.480;  -10.537;52355.059
551.370;52717.563;  -11.727;54589.453
551.954;51870.352;   -9.457;58267.348
552.538;49909.652;   -8.147;59062.176
553.123;48568.129;   -9.397;58115.285
553.707;48973.699;   -9.558;56556.285
554.291;48194.043;   -9.417;56201.668
554.876;50987.965;   -7.627;55335.762
555.460;49593.543;  -10.457;54155.703
556.044;45231.738;  -10.078;53721.484
556.628;44341.543;   -9.407;53731.016
557.212;43990.660;   -7.957;54312.531
557.796;45366.594;  -11.327;53797.773
558.380;49876.895;  -10.868;56145.984
558.964;49141.816;   -9.637;57277.930
559.548;47142.598;   -8.807;56459.641
560.132;48706.828;  -10.187;54434.543
560.716;47812.383;   -9.868;54800.617
561.300;49337.660;  -10.217;57606.945
561.884;49997.078;   -4.947;58972.445
562.467;48118.051;   -9.588;57327.570
563.051;44228.973;  -11.138;54962.434
563.635;44414.465;   -9.358;52594.473
564.219;44177.441;   -9.797;50610.410
564.802;43984.957;   -9.918;49551.180
565.386;43162.180;  -10.838;48370.953
565.969;42029.094;   -8.037;48178.871
566.553;40485.051;   -5.667;49957.305
567.136;41272.992;   -8.258;50369.594
567.720;41014.641;  -11.278;49492.004
568.303;38694.520;   -9.028;50616.352
568.887;37900.980;   -7.508;50727.148
569.470;37204.703;  -11.068;51698.379
570.053;38330.484;  -10.028;52122.078
570.637;38146.668;  -11.077;52536.438
571.220;39761.199;   -8.747;51186.098
571.803;42583.730;   -8.868;51032.762
572.386;43860.664;  -10.608;49609.887
572.969;43654.031;  -10.548;48285.926
573.552;40967.191;   -7.898;47624.285
574.135;40145.621;   -9.918;45498.641
574.718;35575.242;  -10.328;41970.434
575.301;32651.002;   -9.548;41447.137
575.884;29726.762;   -8.768;40923.836
576.467;35317.770;   -9.858;45267.723
577.050;36636.621;  -11.018;48175.543
577.633;38197.324;  -10.048;47729.328
578.216;37669.742;  -10.268;47579.793
578.799;35427.996;  -11.808;47820.996
579.381;34875.957;   -7.338;48115.551
579.964;37340.727;   -9.728;47333.766
580.547;37990.809;   -8.928;46668.969
581.129;37699.992;   -9.149;44466.141
581.712;38402.301;  -11.359;44164.922
582.294;37459.289;  -10.738;46477.855
582.877;35702.836;   -8.788;48244.254
583.459;35714.012;   -9.859;47437.895
584.042;37803.578;   -9.649;46943.219
584.624;37664.016;  -10.529;46792.227
585.206;35402.000;  -10.298;46557.250
585.789;33860.645;  -11.029;45793.773
586.371;34333.336;   -9.359;43836.391
586.953;34193.598;   -8.799;42972.492
587.536;33531.012;   -8.928;42487.211
588.118;33533.996;   -9.180;42086.414
588.700;32475.764;  -10.519;43389.930
589.282;31208.752;   -8.098;43646.039
589.864;31127.496;   -8.139;43438.109
590.446;33440.852;  -10.509;43151.926
591.028;36163.566;  -11.119;42781.867
591.610;36775.801;  -10.019;42839.098
592.192;35270.766;   -8.838;42820.402
592.774;32862.582;  -11.549;40724.277
593.356;30112.885;  -11.609;39874.789
593.937;30556.004;  -10.019;39980.648
594.519;33932.996;   -7.839;42069.633
595.101;35993.391;  -10.779;42976.031
595.683;36550.656;  -10.049;44084.441
596.264;35448.785;   -9.969;43478.797
596.846;33812.578;   -9.699;43803.672
597.427;33001.824;  -10.970;42986.934
598.009;33616.570;  -13.090;42832.219
598.591;33836.688;   -9.509;42580.086
599.172;32436.201;   -9.019;43061.805
599.753;30467.852;  -13.310;41691.469
600.335;30553.287;  -11.010;40692.520
600.916;30778.516;  -10.309;39982.422
601.498;30992.508;   -8.209;40318.617
602.079;31221.590;  -11.440;40670.609
602.660;32835.527;   -8.690;41450.898
603.241;33977.258;  -12.759;41137.738
603.823;32004.984;  -10.409;38868.797
604.404;32295.512;  -11.790;38182.785
604.985;31347.600;  -10.280;38078.047
605.566;32500.037;   -8.059;38056.633
606.147;32385.912;   -8.960;37020.418
606.728;32284.588;  -10.710;37883.359
607.309;31938.824;  -12.760;38748.273
607.890;29613.807;   -9.959;38850.230
608.471;28307.637;   -9.780;37457.918
609.051;29975.010;   -8.940;36066.457
609.632;33018.785;  -12.070;35991.074
610.213;34829.980;   -9.610;37402.641
610.794;34138.008;   -8.750;38383.363
611.374;32771.590;  -11.100;40562.387
611.955;33395.137;  -12.200;38533.727
612.536;33350.289;  -10.410;36951.789
613.116;32940.953;  -10.010;37197.891
613.697;32055.576;  -10.480;38411.125
614.277;30800.697;  -12.751;38673.938
614.858;30272.777;  -11.600;37075.863
615.438;29885.957;   -8.190;35092.906
616.019;29342.531;   -8.941;33666.301
616.599;30377.750;  -13.540;34189.023
617.179;30480.287;  -10.890;36952.047
617.760;30211.461;   -7.610;39582.574
618.340;29723.291;  -14.441;38943.977
618.920;30204.379;   -9.180;37594.156
619.500;31359.631;  -11.881;37866.938
620.080;33470.234;   -9.870;37869.043
620.660;32433.881;  -13.211;36868.617
621.241;30617.072;  -11.921;36352.309
621.821;29444.766;  -10.271;35459.520
622.401;29489.123;   -8.200;35207.414
622.980;30877.631;  -11.141;35980.422
623.560;32767.469;  -14.321;37351.328
624.140;32361.234;   -9.360;34388.582
624.720;28016.033;   -7.481;32368.764
625.300;25446.506;  -12.730;32638.629
625.880;30271.105;  -11.441;34599.035
626.459;33477.504;  -10.971;36831.738
627.039;35470.496;   -9.011;38299.098
627.619;35342.113;   -8.521;38289.574
628.198;36194.488;   -9.861;37220.695
628.778;35743.727;   -8.841;37632.563
629.357;34663.555;   -9.891;38003.012
629.937;31681.656;  -11.871;38402.039
630.516;30070.883;  -10.641;37868.801
631.096;33103.055;  -11.391;35760.410
631.675;34886.305;   -6.622;35225.219
632.254;33056.109;  -13.002;35130.289
632.834;31835.836;  -11.622;35794.570
633.413;32819.547;   -8.321;35788.922
633.992;30942.322;   -7.732;34532.863
634.571;31169.678;  -10.992;33590.113
635.151;32092.844;  -10.422;34943.863
635.730;31384.127;  -11.511;35352.523
636.309;29553.559;   -7.901;35366.605
636.888;29321.914;  -11.452;36165.637
637.467;29777.002;  -10.672;37515.902
638.046;29719.711;   -9.301;39288.695
638.625;30604.686;  -11.452;38279.699
639.204;31833.229;  -12.262;37741.598
639.782;32095.723;  -11.892;38364.551
640.361;31005.559;  -11.411;36740.621
640.940;28100.357;  -11.501;34950.082
641.519;29212.010;  -10.921;34137.398
642.097;32200.836;  -10.101;35654.258
642.676;31509.523;  -10.821;35637.957
643.255;33944.098;   -8.631;36567.074
643.833;36382.180;  -11.411;37809.434
644.412;37982.516;  -12.021;37337.293
644.990;37707.469;  -12.271;37018.531
645.569;35885.484;   -9.741;36518.469
646.147;34439.012;   -9.051;36186.430
646.726;33247.031;  -13.861;36267.688
647.304;32857.949;   -9.461;36647.625
647.882;31937.412;  -13.171;39286.742
648.461;32130.107;  -11.911;39157.703
649.039;32943.039;   -9.541;35412.883
649.617;34342.477;   -8.901;34744.918
650.195;32212.607;   -8.591;35403.098
650.773;30810.568;  -13.031;35053.797
651.352;29797.807;  -12.211;33756.816
651.930;26745.143;  -11.361;31868.773
652.508;23592.674;   -8.601;33121.551
653.086;27196.510;   -9.991;33564.793
653.663;32140.867;  -11.931;34054.668
654.241;34698.086;  -10.821;35693.309
654.819;35032.820;   -9.341;36422.906
655.397;32404.168;  -10.851;38213.484
655.975;30729.307;  -11.461;39507.625
656.553;31473.461;   -8.841;39498.223
657.130;30524.916;  -10.371;40395.480
657.708;29336.250;  -11.071;39242.020
658.286;28721.646;  -11.141;38920.020
658.863;30635.264;  -10.861;40202.898
659.441;35862.465;  -11.181;39677.938
660.018;37517.469;  -10.851;40413.355
660.596;37010.082;  -12.571;39931.414
661.173;37734.254;  -12.141;39604.531
661.750;35382.938;  -11.571;39700.070
662.328;32473.783;  -10.780;39292.809
662.905;30465.758;  -10.750;38235.648
663.482;27461.703;  -11.320;36212.305
664.060;26578.184;  -10.160;35944.945
664.637;31662.965;  -13.120;35170.785
665.214;33225.254;  -11.500;34197.523
665.791;30908.736;  -12.430;34549.520
666.368;29071.418;   -9.840;35118.578
666.945;28516.578;  -11.290;36019.418
667.522;28878.949;  -13.540;36048.438
668.099;29659.955;  -10.250;36243.914
668.676;28825.877;  -11.270;35958.875
669.253;28276.008;   -8.210;37384.730
669.830;27218.213;   -9.710;36779.629
670.407;27029.701;   -9.700;35231.289
670.984;27000.844;   -9.190;35544.270
671.560;25399.225;   -9.560;35466.867
672.137;25026.928;  -11.820;34280.863
672.714;28233.018;  -12.460;34632.863
673.290;32018.424;  -10.940;35135.422
673.867;32116.025;  -10.510;36114.480
674.443;30670.502;  -12.110;36152.859
675.020;31407.799;  -11.760;35327.238
675.596;32050.215;   -9.380;35795.176
676.173;31230.572;  -11.120;35430.355
676.749;30492.967;  -13.390;33549.516
677.326;29533.688;  -12.600;32210.012
677.902;28631.434;  -10.830;32068.871
678.478;28130.928;  -12.400;32583.891
679.054;28942.752;   -8.610;32088.928
679.631;29868.930;  -11.640;30978.848
680.207;31153.242;   -8.140;33160.887
680.783;31659.277;  -12.300;35570.363
681.359;30412.953;  -10.910;36125.184
681.935;29314.953;  -11.040;35240.922
682.511;28992.816;  -11.130;34429.961
683.087;28932.928;  -11.080;34463.680
683.663;30781.467;  -10.530;34648.898
684.239;31034.646;  -12.120;34546.457
684.815;29758.422;   -8.870;35586.375
685.390;28347.418;   -8.940;35821.895
685.966;27532.551;  -12.109;35085.871
686.542;26750.029;  -13.539;34198.230
687.118;26430.045;  -10.379;32847.707
687.693;26916.510;  -10.189;32794.027
688.269;26124.400;  -12.939;33072.367
688.844;25428.182;   -8.679;33141.664
689.420;26781.451;  -10.919;33965.742
689.995;27256.578;   -7.489;34655.523
690.571;26052.217;  -12.199;33576.742
691.146;26260.016;   -8.979;32657.219
691.722;28672.764;   -9.119;32526.979
692.297;28639.109;  -10.519;33014.617
692.872;27929.111;  -10.629;34012.254
693.448;27368.967;  -12.119;34237.434
694.023;26632.893;   -8.219;34142.672
694.598;24916.830;  -13.209;34132.031
695.173;24022.822;  -11.879;34205.250
695.748;24967.580;  -12.039;32882.488
696.323;25690.834;  -11.779;32864.906
696.898;26187.154;  -10.219;33170.004
697.473;27801.178;  -13.639;32432.984
698.048;28793.855;  -11.239;31649.303
698.623;30815.125;  -10.859;30778.141
699.198;31651.107;  -13.379;31140.119
699.773;32004.314;  -13.409;31764.299
700.348;31937.383;  -12.329;31780.816
700.922;32157.027;   -8.749;32046.375
701.497;32112.955;  -12.449;32603.574
702.072;30166.107;   -8.879;34799.871
702.646;28194.990;  -10.719;35793.172
703.221;27390.604;   -8.469;35201.590
703.795;28024.174;  -11.389;34764.527
704.370;27065.791;  -12.499;34307.367
704.944;26260.518;  -11.449;33509.887
705.519;25615.168;  -10.659;31388.584
706.093;24930.973;  -12.909;31340.104
706.668;25515.324;  -13.509;32630.281
707.242;26933.438;  -10.049;32728.779
707.816;26771.807;  -10.629;32947.238
708.390;25597.580;  -11.829;33277.855
708.965;24704.107;  -11.159;33834.336
709.539;25138.877;  -11.069;33709.273
710.113;24567.619;  -10.908;33044.313
710.687;22716.439;   -9.488;31953.992
711.261;23564.307;  -13.068;30505.949
711.835;26184.215;  -12.748;30262.369
712.409;27238.188;  -10.678;31254.447
712.983;25671.545;  -11.658;32754.986
713.557;25364.240;  -13.718;34018.824
714.131;26106.848;  -13.388;34579.625
714.704;28860.621;   -9.818;33890.262
715.278;31345.729;  -11.818;33531.102
715.852;32164.518;  -11.328;33601.660
716.425;32298.992;   -9.118;33515.117
716.999;31893.061;  -10.188;33185.555
717.573;30657.479;   -9.808;33905.996
718.146;30423.273;  -11.478;35199.293
718.720;29598.484;  -10.998;35060.551
719.293;29217.746;   -9.508;34973.230
719.867;30212.828;  -12.138;36394.449
720.440;29959.602;  -11.288;36663.008
721.013;32505.586;  -11.428;35102.426
721.587;34017.102;  -11.698;33985.266
722.160;35160.316;  -11.608;33524.965
722.733;34195.523;  -11.428;32987.043
723.306;30656.379;  -12.518;33066.301
723.880;29276.980;   -7.408;33399.500
724.453;29105.775;  -11.048;33468.297
725.026;27423.578;  -11.678;33816.637
725.599;26503.033;  -10.978;32797.996
726.172;24797.309;   -8.838;33187.434
726.745;25027.768;  -11.438;35136.613
727.318;26796.537;   -9.828;35751.730
727.891;27283.146;  -10.868;35890.430
728.463;26607.803;  -11.348;34822.090
729.036;25112.463;  -11.608;32895.086
729.609;24591.117;  -14.738;31823.225
730.182;25189.520;   -8.448;31445.283
730.754;26115.322;  -11.228;32373.223
731.327;26585.826;  -12.018;33676.820
731.900;28349.338;  -13.748;33417.000
732.472;29161.285;  -10.928;31978.498
733.045;28471.613;   -9.478;30368.777
733.617;26916.301;  -12.967;30574.215
734.190;26140.682;  -11.707;31280.975
734.762;25269.244;  -11.067;31674.412
735.334;24415.131;  -10.587;31247.291
735.907;23583.326;  -11.947;29876.211
736.479;24053.922;  -11.667;29808.488
737.051;25637.832;  -10.187;30233.547
737.623;26470.666;   -6.887;31469.086
738.195;28208.365;  -12.117;31784.225
738.768;29766.203;  -14.077;32120.523
739.340;28393.504;  -12.207;32094.342
739.912;25907.248;   -8.977;31312.680
740.484;25497.355;  -11.017;31946.238
741.056;28123.775;  -13.517;32984.059
741.628;30405.813;  -11.507;33897.715
742.199;30440.387;   -7.597;33213.016
742.771;29632.650;  -12.227;31369.113
743.343;27753.594;  -12.427;31865.473
743.915;25963.762;   -9.827;32388.631
744.487;25066.383;  -10.007;31079.568
745.058;24133.559;  -11.887;30570.107
745.630;23498.955;  -10.787;29970.127
746.201;23165.580;  -10.887;29186.766
746.773;24674.910;   -9.707;28805.723
747.344;25804.617;  -11.137;29591.223
747.916;24880.406;  -11.887;31412.201
748.487;24020.924;   -9.707;32194.898
749.059;23034.369;  -10.027;32533.719
749.630;22365.869;  -11.787;32158.518
750.201;21563.293;  -12.767;30855.395
750.773;20487.957;  -11.497;28622.555
751.344;21715.645;   -9.937;28405.732
751.915;21472.467;  -11.567;28461.551
752.486;19717.912;  -13.267;27842.850
753.057;18461.201;  -10.627;27845.008
753.628;18345.758;  -11.657;27728.107
754.199;20863.873;  -12.097;27381.086
754.770;22122.738;  -11.447;25882.203
755.341;22090.398;  -11.997;25886.184
755.912;20028.201;  -10.207;26050.861
756.483;18110.281;  -10.937;26798.779
757.054;18544.002;  -11.527;27048.238
757.625;18947.439;  -12.886;26294.838
758.195;18894.266;  -11.226;26142.076
758.766;19209.740;  -12.366;26392.234
759.337;18290.193;  -11.946;26334.594
759.907;17822.416;  -13.856;27579.652
760.478;19085.412;   -9.606;28352.770
761.048;20529.297;  -11.606;27325.088
761.619;21135.213;  -11.036;26460.428
762.189;19944.875;  -12.206;26029.826
762.760;19917.164;   -9.666;26430.145
763.330;20641.479;   -9.796;26670.902
763.900;19586.537;  -10.896;26603.021
764.471;18621.139;  -11.726;25542.740
765.041;19379.396;   -9.656;24358.459
765.611;19830.938;  -11.276;23991.297
766.181;19416.729;  -12.116;24470.236
766.751;19285.758;  -12.376;24845.975
767.321;19548.055;  -11.626;24533.633
767.891;19013.617;  -10.426;24916.492
768.461;17092.566;  -13.456;24776.771
769.031;14796.287;  -11.616;24757.988
769.601;14219.071;  -11.356;24181.088
770.171;14649.089;  -11.586;23670.387
770.741;15557.540;  -12.696;22960.045
771.311;16971.943;  -10.226;22917.523
771.880;17411.320;  -11.146;23562.941
772.450;17617.168;  -11.716;24216.500
773.020;17007.773;  -13.226;24140.398
773.589;15986.930;  -12.586;24414.857
774.159;15593.514;  -10.246;23858.717
774.729;15172.814;  -11.586;22942.135
775.298;15006.277;  -15.926;22324.033
775.867;15164.342;  -10.426;21140.313
776.437;14672.069;  -11.416;20838.092
777.006;12874.845;  -12.766;20599.510
777.576;13123.028;  -13.666;20508.809
778.145;14158.060;  -10.066;20732.947
778.714;13951.875;  -10.276;21062.465
779.283;13501.259;  -12.086;20949.664
779.853;13593.521;  -14.016;20508.623
780.422;13627.349;  -12.376;20649.082
780.991;13178.703;   -9.246;21527.520
781.560;12887.448;   -9.775;22632.658
782.129;12893.566;  -12.495;23048.277
782.698;12980.542;  -11.775;23438.555
783.267;13183.024;  -10.065;23267.734
783.836;13807.118;  -12.455;22415.133
784.404;14034.511;  -13.385;20443.152
784.973;14201.748;  -11.045;19699.150
785.542;13893.026;   -9.505;19763.828
786.111;13029.662;   -9.385;20341.408
786.679;12743.636;  -13.475;20207.967
787.248;12651.913;  -11.245;19516.465
787.817;11487.739;  -12.485;18900.363
788.385;10367.294;  -11.165;17879.121
788.954;10809.411;  -11.755;17658.301
789.522;11548.969;   -9.625;17788.879
790.090;11680.416;   -9.665;18118.277
790.659;10991.498;   -9.295;18338.736
791.227;11217.033;  -12.175;18508.615
791.795;12087.427;  -12.145;17898.254
792.364;12046.358;  -11.575;17295.133
792.932;11275.486;  -11.085;16822.051
793.500;10639.329;  -11.345;17040.148
794.068;10522.065;  -12.565;17179.787
794.636;11456.871;  -12.105;16664.246
795.204;12314.526;  -11.995;16524.545
795.772;12095.810;  -12.615;17274.564
796.340;11629.162;  -12.425;17891.002
796.908;11169.896;  -11.455;17648.561
797.476;10209.013;  -12.165;17064.080
798.044; 9222.706;  -15.795;16672.777
798.612; 8952.118;  -10.985;17023.996
799.180; 9563.360;  -12.055;16561.615
799.747; 9870.496;  -12.525;15962.773
800.315; 8955.646;  -14.765;15296.992
800.883; 7824.659;  -12.435;14801.771
801.450; 7748.933;  -11.295;14534.430
802.018; 8233.600;  -11.185;14173.248
802.585; 8412.029;  -11.625;14029.547
803.153; 7699.297;  -10.665;13836.846
803.720; 7301.446;  -10.275;13567.324
804.287; 7435.283;  -12.865;13360.622
804.855; 7671.271;  -12.324;13681.981
805.422; 7776.625;  -11.574;13536.560
805.989; 7473.416;  -11.004;13355.958
806.556; 7570.012;  -12.214;13747.896
807.124; 7799.528;  -13.304;13987.376
807.691; 7573.065;  -12.034;14038.674
808.258; 7337.942;  -11.014;14120.152
808.825; 7253.740;  -11.804;13860.111
809.392; 7074.319;  -11.544;13268.790
809.959; 7027.850;  -14.954;12680.389
810.526; 7335.692;  -10.214;12427.308
811.093; 7293.585;  -10.754;12030.105
811.659; 6911.392;  -12.194;11653.664
812.226; 6271.290;   -9.194;11637.183
812.793; 6146.490;   -9.644;11611.521
813.360; 6825.379;  -11.544;11885.181
813.926; 7728.085;  -12.814;12770.539
814.493; 7646.779;  -11.524;12677.638
815.060; 7367.532;  -12.254;11974.336
815.626; 7076.023;  -12.114;11594.715
816.193; 6725.294;  -11.994;11579.474
816.759; 6409.263;  -11.464;11666.972
817.325; 6112.177;  -10.444;11325.530
817.892; 5884.084;  -11.124;11105.369
818.458; 5943.625;  -11.864;10843.928
819.024; 6448.306;  -10.634;10714.406
819.591; 6568.765;  -10.554;10469.165
820.157; 6556.084;  -13.334;10235.523
820.723; 6557.283;  -13.044;10847.563
821.289; 6605.260;   -9.664;11040.980
821.855; 6864.855;  -10.994;10357.100
822.421; 7159.771;  -11.784; 9978.918
822.987; 7314.023;  -12.554; 9754.177
823.553; 7282.790;  -12.554;10065.755
824.119; 6850.934;   -8.544;10036.294
824.685; 6068.969;  -12.144;10029.192
825.251; 5729.051;  -12.754;10199.230
825.816; 5372.889;  -11.354; 9820.189
826.382; 5016.382;  -11.004; 9297.248
826.948; 5015.916;  -11.004; 9381.347
827.513; 5143.833;  -12.474; 9450.726
828.079; 5265.438;  -13.084; 9472.444
828.645; 5468.484;  -10.813; 9292.643
829.210; 5400.832;  -11.593; 9065.341
829.776; 5550.363;  -12.633; 9132.620
830.341; 5800.410;  -10.473; 9092.878
830.906; 5606.423;   -8.763; 9078.557
831.472; 4924.006;  -13.453; 8534.535
832.037; 4012.849;  -12.173; 8677.874
832.602; 3810.160;  -14.093; 8628.692
833.167; 4223.845;  -13.593; 8879.031
833.733; 4758.492;  -10.793; 9189.790
834.298; 5023.008;  -14.783; 9052.608
834.863; 4635.626;  -11.023; 8895.087
835.428; 4467.313;  -11.113; 8824.266
835.993; 4878.650;   -9.983; 8845.385
836.558; 5093.940;  -13.003; 8888.563
837.123; 4951.330;  -10.733; 8966.582
837.688; 4594.420;   -9.683; 8617.860
838.253; 4419.563;  -12.253; 8590.699
838.817; 4583.879;  -11.643; 8443.797
839.382; 4691.445;  -11.953; 8799.356
839.947; 4636.807;  -11.443; 8810.595
840.511; 4550.020;  -10.843; 8796.394
841.076; 4629.776;  -13.533; 8347.231
841.641; 4705.577;  -11.743; 8224.330
842.205; 4397.929;  -10.013; 8223.349
842.770; 4152.107;  -11.023; 8622.107
843.334; 4220.216;  -14.273; 8410.386
843.898; 4519.951;  -11.323; 8337.465
844.463; 4924.853;  -10.263; 8506.283
845.027; 5114.804;  -10.353; 8280.962
845.591; 5090.229;  -12.163; 8231.141
846.156; 4915.391;  -12.263; 7969.179
846.720; 4919.564;  -11.553; 7768.278
847.284; 4793.208;  -12.393; 7630.957
847.848; 4087.019;  -12.623; 7472.395
848.412; 3492.254;  -11.863; 7437.394
848.976; 3372.905;  -10.203; 7674.592
849.540; 3494.051;  -10.603; 7836.011
850.104; 3649.346;  -12.423; 7913.669
850.668; 3702.868;  -14.613; 7694.508
851.232; 3567.409;  -12.873; 7756.887
851.796; 3541.433;  -14.192; 7926.545
852.359; 3639.117;  -13.652; 7827.844
852.923; 3618.457;  -11.402; 7641.163
853.487; 3494.330;  -12.022; 7342.501
854.050; 3378.258;  -15.202; 7042.820
854.614; 3380.506;  -14.592; 7151.338
855.177; 3347.664;  -12.572; 7105.077
855.741; 3387.113;   -9.932; 6989.675
856.304; 3504.743;  -12.192; 6596.634
856.868; 3542.337;  -13.462; 6356.272
857.431; 3555.786;  -11.542; 6468.571
857.995; 3567.268;  -12.062; 6373.210
858.558; 3274.095;  -11.142; 6324.448
859.121; 3002.760;  -11.742; 6408.327
859.684; 2898.237;  -10.332; 6347.886
860.247; 2939.288;  -11.962; 6321.264
860.810; 3055.909;  -12.332; 6301.903
861.374; 3004.278;  -10.292; 6607.881
861.937; 2873.625;  -12.062; 6408.200
862.500; 2893.323;  -11.702; 6572.639
863.062; 3008.206;  -13.852; 6387.297
863.625; 3052.855;  -12.972; 6190.836
864.188; 2963.773;  -10.292; 5807.254
864.751; 2864.567;  -12.382; 5682.413
865.314; 2691.319;  -13.232; 5547.492
865.876; 2508.549;  -12.772; 5500.150
866.439; 2358.435;  -11.952; 5415.909
867.002; 2371.551;   -9.332; 5501.567
867.564; 2618.181;  -11.712; 5413.946
868.127; 2756.722;  -12.012; 5160.325
868.689; 2483.253;  -11.882; 5133.183
869.252; 2179.678;  -11.572; 5252.382
869.814; 2097.626;  -10.692; 5297.141
870.377; 2196.038;  -12.392; 5390.919
870.939; 2276.090;  -10.582; 5599.898
871.501; 2273.283;  -12.782; 5248.336
872.063; 2243.580;  -15.612; 4854.235
872.626; 2229.119;  -13.922; 4817.074
873.188; 2123.137;  -13.832; 4987.732
873.750; 2019.583;  -10.962; 4868.651
874.312; 2060.419;  -11.022; 4779.330
874.874; 2083.671;  -13.152; 4866.348
875.436; 2036.404;  -13.401; 4718.887
875.998; 1969.522;   -8.891; 4660.005
876.560; 1929.825;  -12.591; 4462.964
877.122; 1897.892;  -14.531; 4145.042
877.683; 1839.546;  -10.781; 4056.481
878.245; 1765.710;  -14.281; 3950.740
878.807; 1742.407;  -10.311; 4058.958
879.369; 1694.694;  -13.201; 3954.677
879.930; 1675.480;  -12.061; 3941.495
880.492; 1688.175;   -9.181; 4067.014
881.053; 1683.657;  -12.051; 3859.633
881.615; 1616.124;  -11.501; 3776.071
882.176; 1508.634;  -12.221; 3734.750
882.738; 1388.252;   -8.931; 3678.489
883.299; 1300.603;  -13.571; 3405.407
883.860; 1324.277;  -12.331; 3351.106
884.422; 1282.926;  -10.201; 3394.044
884.983; 1153.191;  -12.521; 3166.443
885.544; 1052.752;  -12.291; 3189.802
886.105; 1026.655;  -12.991; 3160.360
886.666; 1028.812;  -12.901; 3093.059
887.227; 1005.556;  -12.061; 2941.957
887.788;  959.602;  -11.641; 2974.836
888.349;  916.912;  -14.691; 2721.214
888.910;  879.150;   -9.681; 2696.493
889.471;  867.693;   -9.971; 2560.172
890.032;  850.811;  -13.151; 2558.190
890.593;  824.550;  -12.051; 2567.669
891.153;  799.259;  -12.841; 2460.307
891.714;  783.216;  -13.561; 2372.046
892.275;  765.651;  -12.401; 2309.505
892.835;  733.404;  -13.191; 2382.543
893.396;  694.295;  -12.551; 2295.502
893.956;  678.814;  -11.981; 2162.420
894.517;  678.938;  -12.221; 2125.439
895.077;  640.549;  -12.021; 2086.978
895.638;  570.707;  -10.891; 2126.316
896.198;  516.256;  -13.171; 1838.275
896.758;  476.139;  -11.891; 1892.813
897.319;  436.491;  -12.491; 1792.232
897.879;  414.929;  -12.401; 1762.751
898.439;  386.341;  -13.431; 1661.149
898.999;  368.754;  -11.340; 1781.468
899.559;  361.744;  -13.930; 1703.347
900.119;  346.165;  -13.730; 1537.525
900.679;  330.626;   -9.210; 1638.384
901.239;  317.143;  -10.860; 1527.902
901.799;  297.706;  -11.450; 1456.441
902.359;  276.259;  -13.800; 1357.140
902.919;  269.159;  -12.130; 1331.118
903.479;  265.937;  -12.650; 1317.257
904.038;  253.804;  -16.110; 1262.595
904.598;  236.555;  -13.690; 1152.034
905.158;  224.189;  -10.290; 1240.893
905.717;  216.828;  -10.670; 1233.691
906.277;  214.575;  -14.040; 1217.330
906.836;  214.446;  -13.510; 1222.408
907.396;  209.039;  -11.530; 1193.047
907.955;  198.964;  -13.190; 1182.526
908.515;  187.424;  -12.950; 1099.364
909.074;  179.023;  -12.390; 1092.863
909.633;  173.677;  -10.340; 1069.121
910.192;  170.568;  -11.170; 1196.460
910.752;  168.165;  -14.200; 1029.960
911.311;  163.707;  -13.810; 1009.780
911.870;  161.521;  -12.750;  971.460
912.429;  160.962;  -12.380; 1094.080
912.988;  158.709;  -11.930; 1081.060
913.547;  154.150;  -10.990;  940.380
914.106;  150.424;  -11.200;  999.420
914.665;  148.555;  -13.150;  984.020
915.224;  145.738;  -13.310; 1035.760
915.782;  143.701;  -13.340;  922.560
916.341;  144.130;  -10.710; 1049.840
916.900;  142.485;  -12.980;  925.260
917.458;  139.691;  -13.060;  884.220
918.017;  138.696;  -10.900;  942.600
918.576;  137.244;  -11.630;  904.440
919.134;  137.017;  -12.860;  837.980
919.693;  138.774;  -15.160;  893.060
920.251;  137.822;  -13.470;  876.500
920.809;  135.790;  -13.700;  839.580
921.368;  136.842;  -13.420;  885.360
921.926;  137.301;  -14.710;  842.940
922.484;  137.987;  -12.560;  903.360
923.042;  138.283;  -11.930;  880.340
923.601;  138.335;  -10.270;  998.680
924.159;  136.334;  -12.960;  935.560
924.717;  134.516;  -13.040;  841.080
925.275;  136.291;  -12.560;  903.240
925.833;  136.514;  -13.040;  779.320
926.391;  139.951;  -13.360;  938.380
926.949;  138.853;  -13.940;  857.680
927.506;  138.733;   -9.400;  903.500
928.064;  138.562;  -10.940;  877.580
928.622;  137.180;  -13.180;  880.100
929.180;  137.332;  -12.730;  814.180
929.737;  138.233;  -12.840;  808.540
930.295;  142.657;  -11.810;  928.480
930.853;  147.940;  -13.650;  849.100
931.410;  150.363;  -13.580;  821.120
931.968;  151.689;  -12.020;  940.660
932.525;  151.367;  -13.320;  909.380
933.082;  151.664;  -13.800;  811.440
933.640;  154.993;  -11.380;  925.900
934.197;  156.540;  -11.480;  886.360
934.754;  159.488;  -13.220;  897.780
935.312;  158.308;  -14.950;  863.340
935.869;  157.021;  -10.940; 1012.980
936.426;  152.272;  -12.100;  872.800
936.983;  153.116;  -12.930;  889.020
937.540;  153.829;  -14.250;  838.280
938.097;  157.593;  -12.600;  940.120
938.654;  163.572;  -11.260;  898.860
939.211;  165.973;  -13.020;  952.480
939.768;  169.212;  -15.760;  915.420
940.324;  172.990;  -13.920;  904.200
940.881;  169.440;  -11.620;  878.500
941.438;  167.416;   -9.870; 1021.200
941.995;  162.336;  -13.920;  992.560
942.551;  158.868;  -12.830;  875.620
943.108;  160.621;  -11.980;  937.920
943.664;  164.607;  -13.740;  869.340
944.221;  173.911;  -12.670; 1088.140
944.777;  171.110;  -13.250;  869.680
945.334;  167.660;  -13.000;  884.840
945.890;  166.511;  -13.020;  946.480
946.446;  165.548;  -13.880;  947.020
947.003;  167.751;  -12.660;  964.940
947.559;  167.764;   -8.730; 1063.040
948.115;  166.518;  -11.960; 1026.540
948.671;  161.667;  -12.360;  967.300
949.227;  158.507;  -12.700;  859.560
949.783;  154.945;  -13.450;  858.900
950.339;  153.804;  -10.620;  991.000
950.895;  151.023;  -14.770; 1023.840
951.451;  148.853;  -13.650;  925.280
952.007;  148.710;  -11.180;  998.540
952.563;  149.101;  -11.680;  937.780
953.118;  148.630;  -13.280;  904.940
953.674;  149.563;  -12.510;  935.780
954.230;  149.363;  -12.220;  949.640
954.785;  145.153;  -12.190;  936.640
955.341;  141.894;  -12.270;  998.160
955.897;  138.336;  -14.900;  834.660
956.452;  139.462;  -12.520;  953.840
957.008;  137.512;   -9.410; 1083.640
957.563;  135.962;  -11.280; 1009.540
958.118;  131.841;  -13.470;  877.700
958.674;  133.323;  -12.190;  946.780
959.229;  135.232;  -12.760; 1013.980
959.784;  140.670;  -15.710;  832.400
960.339;  145.141;  -12.540; 1001.280
960.894;  144.047;  -11.680;  963.760
961.449;  139.816;  -11.410;  859.960
962.004;  138.944;  -10.430; 1212.840
962.559;  131.538;  -14.040;  860.140
963.114;  126.347;  -14.270;  742.480
963.669;  128.417;  -11.320;  915.500
964.224;  128.375;  -14.620;  874.340
964.779;  126.799;  -14.150;  828.420
965.334;  126.350;  -10.850; 1017.860
965.888;  125.388;  -14.530;  875.360
966.443;  127.539;  -13.520;  972.380
966.998;  123.552;  -13.370;  819.460
967.552;  121.438;   -9.960;  908.380
968.107;  117.992;  -12.360;  868.300
968.661;  119.544;  -12.270;  922.440
969.216;  117.193;  -12.140;  856.280
969.770;  118.097;  -11.860;  917.200
970.324;  117.844;  -12.170;  923.140
970.879;  117.328;  -14.160;  947.180
971.433;  114.663;  -12.940;  952.720
971.987;  110.214;  -10.180;  895.340
972.541;  110.591;  -12.130;  917.100
973.095;  110.948;  -14.980; 1009.460
973.649;  109.775;  -14.480;  809.480
974.203;  112.220;  -13.530;  829.040
974.757;  113.498;  -12.060;  855.220
975.311;  110.628;  -13.240;  872.600
975.865;  107.836;  -12.550;  881.820
976.419;  106.014;  -13.180;  857.400
976.973;  105.705;  -14.100;  849.620
977.526;  105.418;  -13.330;  949.920
978.080;  100.472;  -15.390;  796.780
978.634;  100.223;  -11.670;  921.320
979.187;   97.959;  -10.640;  905.400
979.741;   98.691;  -13.330; 1018.380
980.294;   96.282;  -14.480;  789.160
980.848;   94.857;  -13.420;  717.220
981.401;   93.038;  -12.360;  816.540
981.955;   90.346;  -12.480;  844.300
982.508;   86.425;  -14.000;  746.340
983.061;   85.968;  -10.440;  915.260
983.615;   83.065;  -14.340;  798.800
984.168;   81.643;  -14.950;  770.080
984.721;   81.326;  -13.270;  880.760
985.274;   79.258;  -12.240;  867.500
985.827;   77.166;  -12.720;  834.220
986.380;   74.734;  -14.920;  721.340
986.933;   74.201;  -12.860;  864.800
987.486;   73.050;  -10.440;  861.920
988.039;   72.549;  -11.820;  863.100
988.591;   71.123;  -13.760;  893.260
989.144;   68.616;  -14.080;  737.260
989.697;   68.943;  -13.440;  758.740
990.250;   69.397;  -12.050;  858.100
990.802;   68.289;  -14.550;  755.860
991.355;   68.714;  -10.770;  974.880
991.907;   66.819;  -11.710;  864.320
992.460;   64.924;  -12.650;  753.760
993.012;   65.033;  -13.860;  749.540
993.565;   63.058;  -14.310;  711.360
994.117;   62.081;   -9.920;  950.780
994.669;   58.719;  -13.420;  701.320
995.221;   57.975;  -14.200;  791.920
995.774;   57.098;  -13.400;  787.580
996.326;   56.665;  -11.850;  740.220
996.878;   55.977;  -12.230;  838.420
997.430;   54.276;  -14.260;  699.860
997.982;   53.508;  -11.430;  750.140
998.534;   53.599;  -11.590;  739.060
999.086;   52.800;  -11.960;  738.220
999.638;   52.161;  -13.640;  661.380
1000.190;   50.800;  -13.660;  699.320
1000.741;   51.237;   -9.980;  742.700
1001.293;   49.571;  -11.860;  686.020
1001.845;   48.803;  -14.280;  676.640
1002.396;   49.739;  -12.270;  743.400
1002.948;   48.542;  -13.670;  737.400
1003.500;   47.282;  -12.010;  723.780
1004.051;   48.026;  -11.890;  907.580
1004.603;   47.446;  -11.220;  791.820
1005.154;   43.170;  -13.210;  608.980
1005.705;   43.041;  -11.850;  723.960
1006.257;   42.578;  -13.670;  707.220
1006.808;   41.723;  -12.060;  685.460
1007.359;   41.070;  -10.250;  763.240
1007.910;   39.268;  -13.440;  646.640
1008.461;   40.361;  -13.170;  732.940
1009.013;   38.205;  -14.590;  588.340
1009.564;   39.351;  -12.100;  793.520
1010.115;   37.406;  -14.000;  597.040
1010.665;   36.987;  -15.020;  602.160
1011.216;   37.625;  -12.560;  667.920
1011.767;   36.802;  -11.330;  697.920
1012.318;   37.800;  -11.450;  736.980
1012.869;   36.530;  -11.000;  679.000
1013.419;   35.663;  -11.760;  603.120
1013.970;   36.100;  -11.800;  666.640
1014.521;   35.319;  -14.750;  620.620
1015.071;   35.698;  -14.430;  670.380
1015.622;   35.190;  -14.170;  635.460
1016.172;   34.190;  -11.700;  596.820
1016.723;   33.671;  -13.230;  614.380
1017.273;   33.447;  -16.120;  604.160
1017.823;   33.776;  -13.360;  650.340
1018.374;   34.213;  -13.710;  611.760
1018.924;   33.176;  -11.050;  716.880
1019.474;   33.516;  -14.120;  718.880
1020.024;   32.477;  -12.990;  657.580
1020.574;   33.191;  -12.010;  726.160
1021.124;   32.848;  -12.080;  673.580
1021.674;   31.160;  -15.860;  559.120
1022.224;   32.606;  -11.710;  708.940
1022.774;   31.763;  -13.030;  668.820
1023.324;   32.621;  -11.000;  753.520
1023.874;   34.011;  -13.270;  875.760
1024.423;   30.334;  -14.570;  613.700
1024.973;   30.838;  -12.620;  610.760
1025.523;   30.164;  -12.630;  620.960
1026.072;   29.787;  -14.110;  606.420
1026.622;   29.878;  -15.390;  675.740
1027.172;   30.976;   -9.090;  715.660
1027.721;   28.887;  -12.250;  601.220
1028.270;   29.814;  -15.590;  663.400
1028.820;   28.976;  -13.840;  638.080
1029.369;   29.186;  -13.170;  612.700
1029.918;   29.393;  -14.080;  649.840
1030.468;   29.031;  -13.860;  564.780
1031.017;   29.176;  -12.970;  634.800
1031.566;   28.133;  -12.320;  608.900
1032.115;   29.105;  -13.140;  694.500
1032.664;   27.648;  -14.560;  596.480
1033.213;   28.719;  -11.620;  735.420
1033.762;   27.630;  -13.190;  635.620
1034.311;   26.850;  -13.460;  677.220
1034.860;   28.136;  -15.770;  691.000
1035.408;   27.850;  -13.100;  722.720
1035.957;   28.086;  -12.880;  719.540
1036.506;   24.940;  -13.640;  530.800
1037.055;   29.030;  -12.420;  844.320
1037.603;   26.808;  -13.740;  664.000
1038.152;   24.514;  -13.840;  534.760
1038.700;   25.541;  -10.770;  585.740
1039.249;   25.293;  -13.520;  681.220
1039.797;   25.677;  -13.060;  633.360
1040.345;   25.813;  -11.760;  705.420
1040.894;   24.905;  -10.790;  625.300
1041.442;   24.774;  -15.420;  632.200
1041.990;   24.034;  -14.550;  559.160
1042.538;   22.528;  -15.620;  536.180
1043.087;   23.349;  -14.940;  570.860
1043.635;   25.429;  -12.100;  670.500
1044.183;   23.713;  -13.200;  586.400
1044.731;   23.937;  -11.630;  576.000
1045.279;   23.233;  -14.200;  674.920
1045.827;   26.318;  -12.510;  892.400
1046.374;   22.803;  -14.960;  515.420
1046.922;   22.068;  -11.850;  590.580
1047.470;   23.535;  -13.770;  691.300
1048.018;   23.223;  -15.380;  647.960
1048.565;   24.209;  -14.010;  708.600
1049.113;   21.699;  -14.620;  557.000
1049.660;   22.141;  -14.940;  629.660
1050.208;   22.779;  -14.540;  675.640
1050.755;   21.852;  -13.710;  606.580
1051.303;   22.678;  -11.880;  686.820
1051.850;   22.060;  -12.160;  635.120
1052.397;   19.979;  -15.110;  473.960
1052.945;   20.343;  -14.770;  617.760
1053.492;   21.866;  -12.320;  741.840
1054.039;   22.092;  -13.290;  720.180
1054.586;   20.354;  -15.210;  557.240
1055.133;   21.680;  -12.920;  693.140
1055.680;   21.306;  -12.610;  646.620
1056.227;   19.404;  -12.620;  542.780
1056.774;   22.381;  -13.010;  794.980
1057.321;   19.373;  -16.180;  523.260
1057.868;   20.092;  -11.230;  651.320
1058.415;   19.795;  -10.890;  651.980
1058.961;   19.910;  -12.530;  678.940
1059.508;   20.076;  -14.120;  643.820
1060.055;   19.231;  -13.340;  581.780
1060.601;   19.346;  -12.920;  624.300
1061.148;   19.249;  -14.430;  616.820
1061.694;   18.443;  -14.140;  592.580
1062.241;   19.011;  -12.550;  596.320
1062.787;   18.626;  -13.370;  663.140
1063.334;   21.350;  -12.260;  808.560
1063.880;   19.564;  -10.800;  668.360
1064.426;   18.646;   -9.920;  706.820
1064.972;   18.052;  -12.970;  601.340
1065.518;   17.663;  -14.440;  566.640
1066.065;   18.690;  -12.680;  624.460
1066.611;   17.082;  -13.520;  598.800
1067.157;   17.733;  -11.100;  641.860
1067.703;   17.941;  -14.100;  668.480
1068.249;   17.455;  -13.750;  605.220
1068.794;   17.464;  -11.070;  626.880
1069.340;   16.342;  -13.210;  578.960
1069.886;   17.809;  -14.850;  590.700
1070.432;   16.261;  -14.580;  541.720
1070.977;   15.166;  -12.930;  601.080
1071.523;   16.143;  -11.970;  573.060
1072.068;   16.719;  -13.730;  582.000
1072.614;   16.401;  -14.550;  527.760
1073.160;   16.870;  -13.690;  687.040
1073.705;   15.483;  -14.780;  572.520
1074.250;   15.816;  -15.430;  559.900
1074.796;   16.454;  -11.620;  655.160
1075.341;   16.860;  -11.580;  664.100
1075.886;   15.488;  -13.190;  594.240
1076.431;   15.987;  -13.630;  649.880
1076.976;   15.523;  -11.670;  639.220
1077.521;   14.346;  -11.600;  583.080
1078.067;   14.129;  -13.920;  579.400
1078.612;   15.251;  -12.910;  661.620
1079.156;   14.879;  -15.340;  601.540
1079.701;   14.442;  -12.560;  693.260
1080.246;   15.406;  -12.490;  696.300
1080.791;   14.634;  -14.550;  625.020
1081.336;   15.102;  -15.210;  659.320
1081.880;   14.997;  -11.280;  649.680
1082.425;   13.044;  -12.830;  573.480
1082.970;   16.161;  -11.680;  717.040
1083.514;   14.117;  -15.500;  597.000
1084.059;   12.213;  -11.770;  586.720
1084.603;   12.212;  -13.480;  565.840
1085.147;   13.904;  -13.940;  645.220
1085.692;   14.117;  -13.170;  716.800
1086.236;   11.996;  -15.740;  503.140
1086.780;   13.841;  -10.750;  751.440
1087.325;   13.868;  -14.900;  654.620
1087.869;   13.053;  -15.160;  610.700
1088.413;   14.090;  -11.030;  705.040
1088.957;   11.260;  -15.210;  543.400
1089.501;   13.347;  -12.310;  766.640
1090.045;   13.551;  -12.790;  726.480
1090.589;   11.225;  -14.040;  569.920
1091.133;   12.606;  -12.800;  673.340
1091.676;   12.484;  -13.600;  591.940
1092.220;   11.918;  -12.960;  600.920
1092.764;   12.836;  -10.830;  706.960
1093.307;   12.075;  -12.390;  673.780
1093.851;   11.334;  -15.850;  556.540
1094.395;   12.381;  -12.980;  683.140
1094.938;   10.958;  -13.670;  632.520
1095.482;   10.647;  -12.740;  559.800
1096.025;   12.474;  -13.340;  710.880
1096.568;   12.446;  -10.500;  779.280
1097.112;    9.178;  -13.500;  508.180
1097.655;   11.225;  -13.060;  603.000
1098.198;    9.689;  -13.240;  600.180
1098.741;    9.600;  -15.490;  612.860
1099.285;   10.782;  -13.410;  657.300
1099.828;    8.576;  -15.640;  439.400
1100.371;    9.956;  -13.980;  608.160
1100.914;   10.199;  -13.990;  682.660
1101.457;   10.431;  -15.030;  679.900
1101.999;    8.410;  -12.480;  584.680
1102.542;   10.448;  -12.410;  641.440
1103.085;    9.694;  -14.730;  658.500
1103.628;   10.274;  -12.190;  762.060
1104.170;    8.410;  -12.360;  588.280
1104.713;   10.163;  -13.350;  646.700
1105.256;    8.714;  -14.930;  557.440
1105.798;    7.583;  -15.150;  499.980
1106.341;   10.148;  -13.230;  728.900
1106.883;    8.592;  -14.680;  521.340
1107.425;    9.814;  -14.810;  668.180
1107.968;    8.570;  -12.940;  612.380
1108.510;    9.021;  -10.550;  684.960
1109.052;    7.952;  -15.640;  612.620
1109.594;    8.370;  -14.440;  554.440
1110.136;    8.114;  -11.380;  643.220
1110.679;    7.627;  -13.090;  633.080
1111.221;    8.866;  -14.230;  604.460
1111.763;    6.870;  -14.260;  559.220
1112.304;    6.785;  -14.510;  547.140
1112.846;    8.338;  -14.700;  666.240
1113.388;   10.602;  -12.270;  942.180
1113.930;    7.875;  -13.340;  694.200
1114.472;    7.536;  -12.560;  606.540
1115.013;    6.302;  -14.280;  551.280
1115.555;    6.687;  -14.010;  587.100
1116.097;    6.289;  -14.730;  579.480
1116.638;    6.396;  -12.160;  684.600
1117.180;    7.175;  -14.320;  667.740
1117.721;    6.576;  -15.730;  568.580
1118.262;    7.558;  -13.480;  677.960
1118.804;    7.005;  -11.530;  637.340
1119.345;    5.628;  -13.540;  578.400
1119.886;    8.489;  -14.470;  704.040
1120.427;    5.944;  -13.030;  589.020
1120.969;    5.815;  -13.150;  597.920
1121.510;    5.121;  -13.940;  563.060
1122.051;    6.396;  -12.310;  723.580
1122.592;    5.478;  -13.870;  655.420
1123.133;    4.629;  -12.890;  547.940
1123.673;    5.945;  -13.300;  706.480
1124.214;    5.545;  -14.000;  612.460
1124.755;    6.623;  -13.210;  639.460
1125.296;    5.769;  -13.450;  627.320
1125.836;    6.823;  -12.610;  691.500
1126.377;    4.731;  -15.840;  599.660
1126.918;    6.317;  -11.830;  614.980
1127.458;    4.525;  -11.830;  622.220
1127.999;    5.800;  -11.490;  656.980
1128.539;    5.587;  -12.900;  694.240
1129.079;    4.159;  -14.910;  632.720
1129.620;    4.040;  -12.920;  558.100
1130.160;    3.565;  -14.640;  539.480
1130.700;    4.485;  -13.270;  640.840
1131.240;    5.623;  -14.110;  643.700
1131.781;    4.888;  -13.130;  619.680
1132.321;    3.864;  -15.220;  599.120
1132.861;    3.644;  -15.670;  564.200
1133.401;    3.727;  -13.970;  593.940
1133.941;    4.041;  -13.740;  626.280
1134.481;    3.346;  -13.200;  597.580
1135.020;    3.325;  -14.830;  609.160
1135.560;    4.088;  -14.590;  674.940
1136.100;    1.966;  -13.730;  501.160
1136.640;    2.795;  -15.240;  510.480
1137.179;    3.035;  -14.710;  537.960
1137.719;    3.551;  -14.090;  605.400
1138.258;    3.059;  -12.470;  587.360
1138.798;    3.011;  -12.580;  663.780
1139.337;    1.985;  -16.480;  482.840
1139.877;    3.102;  -13.970;  642.360
1140.416;    5.565;   -9.870;  878.060
1140.955;    2.079;  -14.860;  535.380
1141.494;    3.269;  -14.530;  669.280
1142.034;    2.361;  -13.940;  583.520
1142.573;    2.999;  -11.160;  646.280
1143.112;    2.040;  -15.050;  553.480
1143.651;    2.570;  -15.390;  536.480
1144.190;    3.510;  -12.990;  691.640
1144.729;    2.304;  -12.220;  607.420
1145.267;    2.520;  -14.020;  584.900
1145.806;    2.930;  -12.740;  637.040
1146.345;    2.173;  -14.810;  635.020
1146.884;    2.131;  -12.920;  622.500
1147.422;    1.000;  -13.930;  533.060
1147.961;    3.567;  -11.830;  708.460
1148.500;    2.981;  -12.710;  669.720
1149.038;    2.774;  -14.420;  632.500
1149.577;    2.462;  -13.920;  698.640
1150.115;    0.289;  -17.050;  452.280
1150.653;    1.483;  -14.890;  607.340
1151.192;    1.353;  -15.270;  552.920
1151.730;    1.260;  -13.160;  652.560
1152.268;    0.883;  -15.430;  589.520
1152.806;    1.271;  -15.880;  571.180
1153.344;   -0.168;  -13.240;  577.640
1153.882;    1.059;  -13.010;  600.060
1154.421;    0.277;  -16.180;  470.620
1154.958;    0.568;  -13.880;  595.240
1155.496;    1.286;  -13.590;  645.280
1156.034;    1.006;  -11.910;  721.880
1156.572;    2.307;  -12.010;  667.060
1157.110;   -0.393;  -16.250;  473.940
1157.647;    1.617;  -15.230;  676.960
1158.185;   -0.080;  -13.770;  564.320
1158.723;   -0.428;  -15.300;  509.200
1159.260;    0.643;  -13.130;  701.700
1159.798;    0.359;  -11.300;  658.160
1160.335;   -0.071;  -13.210;  631.820

