
Integration time [ms]:   3.276
Averaging Nr. [scans]: 1000
Smoothing Nr. [pixels]: 0
Data measured with spectrometer [name]: 7414430SP
Wave   ;Sample   ;Dark     ;Reference
[nm]   ;[counts] ;[counts] ;[counts] 

288.544;  150.577;    7.793;  793.890
289.143;  154.194;    7.462;  681.602
289.742;  154.783;    8.602;  828.814
290.341;  139.573;    1.321;  789.841
290.940;  129.228;   -0.709;  730.702
291.538;  130.386;    0.881;  881.108
292.137;  130.162;    0.122;  792.581
292.736;  134.382;   -1.929;  975.101
293.335;  130.516;   -8.229;  735.086
293.934;  131.570;   -5.279;  781.677
294.532;  129.596;   -1.369; 1031.958
295.131;  115.747;   -7.641;  834.394
295.730;  115.375;   -8.420;  809.588
296.328;  115.044;   -5.611;  783.442
296.927;  115.404;   -5.781;  779.652
297.525;  116.221;   -6.361;  781.236
298.124;  107.366;  -11.382;  654.009
298.722;  110.674;   -7.641;  761.933
299.321;  109.124;   -6.811;  708.597
299.919;  106.516;   -6.991;  751.918
300.518;  103.280;  -10.362;  689.338
301.116;  105.232;   -9.581;  691.381
301.715;  104.568;   -4.891;  730.222
302.313;  104.153;   -8.801;  704.943
302.911;   99.323;   -8.522;  733.830
303.509;  105.223;   -6.171;  925.627
304.108;  102.529;   -7.311;  760.383
304.706;  102.190;   -8.321;  801.664
305.304;   96.093;  -10.222;  796.707
305.902;  101.012;   -6.021;  784.484
306.500;   97.431;   -4.971;  728.200
307.098;   96.064;   -7.061;  746.560
307.696;   93.842;   -8.801;  780.432
308.294;   94.047;   -6.411;  731.359
308.892;   95.886;   -2.901;  759.769
309.490;   92.765;   -5.041;  712.161
310.088;   90.609;   -5.002;  788.444
310.686;   95.072;   -2.041;  821.749
311.284;   90.581;   -2.351;  766.040
311.882;   88.412;   -4.422;  731.225
312.480;   86.208;   -4.192;  697.167
313.078;   87.032;   -1.172;  808.331
313.675;   87.429;   -2.601;  691.600
314.273;   82.554;   -1.312;  797.837
314.871;   81.908;   -3.942;  589.829
315.468;   79.978;   -2.802;  652.090
316.066;   83.085;   -0.701;  694.427
316.664;   75.630;   -4.362;  656.351
317.261;   80.136;   -2.872;  910.128
317.859;   74.755;   -2.022;  768.735
318.456;   75.387;   -0.531;  830.096
319.054;   71.833;   -3.912;  787.828
319.651;   70.268;   -4.752;  759.928
320.249;   69.748;   -2.602;  810.188
320.846;   67.098;   -0.821;  714.286
321.443;   65.291;   -4.642;  832.135
322.041;   61.693;   -5.002;  812.315
322.638;   59.453;   -3.982;  701.456
323.235;   60.817;   -3.411;  665.683
323.833;   58.037;   -7.361;  740.354
324.430;   52.418;   -8.611;  615.900
325.027;   54.513;   -4.061;  876.855
325.624;   53.311;   -4.031;  644.532
326.221;   51.528;   -7.481;  689.717
326.818;   51.106;   -5.281;  818.332
327.415;   53.987;   -7.460;  748.828
328.012;   53.208;   -5.510;  690.585
328.609;   52.082;   -7.880;  731.389
329.206;   50.049;   -8.331;  778.621
329.803;   49.802;   -5.121;  737.841
330.400;   53.404;   -4.510;  704.260
330.997;   54.093;   -6.441;  817.147
331.594;   52.508;   -8.831;  788.185
332.191;   58.495;   -7.621;  728.722
332.787;   60.662;   -4.591;  844.463
333.384;   59.094;   -7.412;  763.093
333.981;   58.304;   -8.293;  815.687
334.578;   61.226;   -7.052;  708.378
335.174;   64.047;   -3.102;  731.469
335.771;   62.972;   -5.943;  836.456
336.367;   60.228;   -7.393;  710.631
336.964;   63.800;   -4.063;  793.266
337.561;   61.660;   -3.813;  731.112
338.157;   57.565;   -4.654;  911.916
338.754;   55.237;   -7.934;  796.589
339.350;   53.854;   -4.414;  722.493
339.946;   55.393;   -4.664;  773.135
340.543;   47.327;   -6.375;  846.136
341.139;   42.017;   -9.815;  720.836
341.735;   40.311;   -4.526;  772.593
342.332;   38.795;   -4.895;  691.472
342.928;   39.179;   -4.295;  795.394
343.524;   32.999;   -5.476;  761.684
344.120;   29.380;   -5.856;  738.562
344.716;   33.168;   -2.155;  723.717
345.313;   29.766;   -6.275;  795.342
345.909;   23.741;   -8.815;  627.336
346.505;   25.916;   -5.305;  740.247
347.101;   27.418;   -2.674;  827.864
347.697;   27.473;   -4.344;  785.398
348.293;   22.068;   -9.975;  627.244
348.889;   23.186;   -5.774;  745.914
349.485;   22.533;   -5.004;  688.205
350.081;   22.344;   -4.704;  772.592
350.676;   17.655;   -6.635;  691.606
351.272;   22.264;   -4.504;  809.530
351.868;   22.727;   -3.914;  780.497
352.464;   18.956;   -9.044;  723.932
353.059;   15.531;   -8.314;  646.017
353.655;   18.696;   -7.024;  777.063
354.251;   20.558;   -5.343;  759.845
354.846;   15.260;   -8.604;  740.646
355.442;   12.102;   -6.945;  753.071
356.038;   13.702;   -7.564;  751.708
356.633;   14.607;   -5.814;  728.594
357.229;   12.983;   -7.364;  724.757
357.824;   10.508;   -8.024;  703.600
358.420;    9.907;   -9.384;  679.726
359.015;    9.683;   -5.104;  695.357
359.610;   11.270;   -6.854;  763.920
360.206;    5.485;  -10.185;  603.240
360.801;    8.120;   -7.054;  646.503
361.396;   10.016;   -5.034;  725.975
361.992;    5.981;   -8.284;  668.220
362.587;    2.776;   -8.625;  670.160
363.182;    5.556;   -7.674;  689.631
363.777;    5.683;   -5.164;  738.242
364.372;    6.091;   -8.604;  737.314
364.967;    1.273;   -9.055;  680.744
365.563;    5.968;   -6.114;  815.567
366.158;    2.674;   -5.814;  685.161
366.753;    2.726;   -7.854;  649.263
367.348;    1.970;   -7.804;  746.056
367.942;    2.008;   -7.954;  697.298
368.537;    1.276;   -4.984;  754.245
369.132;    0.998;   -8.564;  703.428
369.727;   -3.079;   -8.855;  638.079
370.322;   -1.210;   -6.245;  580.186
370.917;   -1.915;   -6.425;  710.646
371.511;    0.611;   -6.294;  861.834
372.106;   -2.816;   -7.685;  776.964
372.701;   -5.608;   -7.335;  585.988
373.296;   -0.257;   -4.564;  863.135
373.890;   -5.591;  -10.235;  647.840
374.485;   -7.464;   -7.885;  691.199
375.079;   -2.950;   -7.324;  738.685
375.674;   -2.056;   -3.494;  812.970
376.268;   -6.230;   -8.525;  691.759
376.863;  -11.880;  -10.086;  580.327
377.457;   -6.394;   -7.025;  662.490
378.052;   -8.030;   -3.585;  764.884
378.646;   -8.347;   -7.595;  741.167
379.240;   -9.113;   -8.335;  721.176
379.835;   -7.812;   -5.785;  636.978
380.429;   -9.825;   -4.335;  562.557
381.023;  -10.592;   -6.805;  779.205
381.617;  -12.675;   -9.195;  680.106
382.212;   -8.911;   -6.905;  685.303
382.806;   -7.812;   -3.745;  760.690
383.400;  -12.433;   -7.745;  672.281
383.994;  -13.621;   -9.765;  664.870
384.588;   -9.132;   -6.564;  697.701
385.182;   -7.657;   -5.344;  726.624
385.776;  -10.008;   -8.514;  706.875
386.370;  -12.926;   -9.555;  681.968
386.964;  -12.099;   -8.715;  684.155
387.558;   -9.541;   -6.174;  598.360
388.152;  -13.928;   -8.725;  681.959
388.745;  -11.863;   -7.965;  814.707
389.339;  -10.003;   -5.924;  747.642
389.933;   -8.934;   -5.524;  695.370
390.527;   -9.820;   -7.114;  859.029
391.120;  -16.570;  -10.725;  595.318
391.714;  -13.591;   -8.035;  711.633
392.308;   -9.946;   -3.574;  780.253
392.901;  -14.455;   -7.245;  642.460
393.495;  -15.744;   -9.285;  595.414
394.089;  -13.943;   -5.895;  760.452
394.682;  -14.192;   -4.295;  697.188
395.275;  -14.754;   -9.875;  719.927
395.869;  -15.904;   -8.485;  667.314
396.462;  -14.129;   -7.455;  616.609
397.056;  -10.487;   -5.424;  776.621
397.649;  -15.624;   -6.605;  731.575
398.242;  -12.970;   -8.224;  712.645
398.836;  -12.143;   -7.474;  766.408
399.429;  -12.995;   -7.094;  631.041
400.022;  -16.452;   -9.475;  665.902
400.615;  -14.381;   -7.145;  805.609
401.208;  -13.241;   -7.174;  691.451
401.802;  -14.522;   -5.515;  699.329
402.395;  -15.684;   -9.875;  683.502
402.988;  -16.777;   -8.845;  696.627
403.581;  -13.319;   -8.874;  646.878
404.174;  -11.895;   -5.324;  686.568
404.767;  -13.669;   -9.575;  638.583
405.360;  -17.111;  -10.965;  621.445
405.953;  -10.925;   -8.764;  759.034
406.545;  -10.236;   -7.514;  725.342
407.138;  -14.248;  -10.025;  618.350
407.731;  -14.023;  -10.034;  613.303
408.324;   -9.348;   -9.374;  660.554
408.917;  -10.115;   -6.534;  681.864
409.509;  -12.439;   -8.004;  740.396
410.102;  -14.657;   -9.875;  643.948
410.695;   -8.128;   -8.604;  665.758
411.287;   -9.849;   -6.794;  599.821
411.880;  -10.810;   -9.334;  585.421
412.472;  -13.923;  -10.254;  613.092
413.065;  -10.991;   -6.714;  629.408
413.657;   -9.226;   -7.234;  576.678
414.250;   -8.918;  -10.544;  646.681
414.842;  -10.540;   -9.744;  676.353
415.434;   -8.226;   -6.994;  570.463
416.027;   -4.174;   -5.893;  652.196
416.619;   -6.893;   -7.264;  713.400
417.211;   -7.375;  -10.374;  599.352
417.804;   -4.066;   -7.993;  628.499
418.396;   -7.086;   -7.234;  607.643
418.988;   -5.561;   -9.443;  659.238
419.580;   -8.513;  -10.724;  568.276
420.172;   -6.009;  -10.323;  536.196
420.764;   -1.581;   -8.793;  672.482
421.356;   -3.170;  -11.143;  636.898
421.948;   -4.143;   -8.293;  677.661
422.540;    1.545;   -7.893;  680.027
423.132;    0.561;   -7.082;  600.641
423.724;   -2.601;   -8.653;  561.267
424.316;   -1.910;  -10.213;  621.345
424.908;    2.352;   -9.762;  591.517
425.500;    3.092;   -5.572;  647.978
426.092;    3.245;   -8.422;  648.268
426.683;    2.351;   -9.283;  684.836
427.275;    5.597;   -7.852;  641.471
427.867;    7.358;   -5.272;  668.948
428.458;    7.786;   -7.682;  732.344
429.050;    5.738;  -10.612;  680.749
429.642;    7.715;   -9.882;  743.124
430.233;    8.866;   -6.962;  569.356
430.825;   10.058;   -6.842;  724.809
431.416;    6.827;   -9.672;  698.241
432.008;   10.306;   -6.552;  651.723
432.599;   11.402;   -6.891;  656.073
433.190;    9.143;  -10.912;  637.670
433.782;    7.321;  -11.172;  590.395
434.373;   15.627;   -6.061;  884.765
434.964;   13.467;   -8.251;  602.920
435.556;   11.194;   -9.722;  634.537
436.147;   14.804;   -9.082;  758.490
436.738;   14.755;   -8.041;  701.099
437.329;   20.060;   -7.341;  721.723
437.920;   12.964;   -8.162;  666.688
438.511;   12.851;  -11.802;  564.526
439.103;   19.073;  -10.191;  623.998
439.694;   20.972;   -7.601;  681.583
440.285;   21.929;   -8.541;  764.432
440.876;   19.416;   -9.751;  845.738
441.466;   19.382;   -9.401;  575.162
442.057;   24.730;   -7.760;  665.814
442.648;   23.036;   -9.971;  746.255
443.239;   21.355;  -11.001;  620.477
443.830;   26.697;   -7.990;  704.958
444.421;   28.462;   -7.910;  655.474
445.011;   25.146;   -8.131;  693.619
445.602;   23.402;   -7.111;  743.126
446.193;   26.870;  -10.920;  488.117
446.783;   30.619;   -6.500;  640.397
447.374;   26.190;   -8.671;  692.759
447.964;   26.890;  -10.781;  713.770
448.555;   34.942;   -9.650;  822.742
449.145;   31.963;   -8.660;  662.853
449.736;   32.652;   -8.990;  803.179
450.326;   32.646;   -9.500;  713.626
450.917;   37.311;   -8.680;  675.324
451.507;   35.872;   -7.520;  600.661
452.097;   37.412;   -8.590;  746.267
452.688;   37.786;  -11.340;  742.160
453.278;   39.084;  -10.100;  566.840
453.868;   42.377;   -6.019;  793.550
454.458;   40.316;   -9.440;  651.141
455.048;   40.872;  -10.560;  711.783
455.639;   41.915;  -11.799;  567.096
456.229;   45.988;   -6.899;  710.694
456.819;   47.156;   -7.389;  751.158
457.409;   47.429;  -11.119;  773.993
457.999;   50.857;   -9.289;  737.505
458.589;   50.329;   -6.139;  686.606
459.179;   50.357;   -8.729;  717.658
459.769;   48.784;   -9.789;  627.099
460.358;   53.249;  -10.259;  797.262
460.948;   53.153;   -7.299;  689.503
461.538;   55.235;  -10.289;  660.677
462.128;   52.809;  -11.269;  664.934
462.717;   59.633;   -9.368;  710.326
463.307;   62.810;   -7.908;  705.846
463.897;   58.820;   -9.599;  656.942
464.486;   57.663;   -9.769;  837.128
465.076;   61.472;   -8.048;  733.776
465.666;   65.417;   -9.358;  652.900
466.255;   63.059;   -7.919;  785.651
466.845;   61.817;  -11.689;  666.749
467.434;   65.526;   -7.818;  725.873
468.023;   66.667;   -7.678;  658.357
468.613;   63.976;  -10.939;  713.946
469.202;   68.106;  -10.118;  646.507
469.791;   71.976;   -9.108;  737.811
470.381;   73.369;   -6.058;  742.813
470.970;   74.364;  -10.428;  711.099
471.559;   73.952;  -10.268;  733.291
472.148;   76.912;   -8.448;  675.737
472.738;   78.862;   -6.917;  765.466
473.327;   79.243;  -11.978;  637.529
473.916;   78.077;  -11.888;  737.446
474.505;   83.209;   -9.437;  751.703
475.094;   85.461;   -6.747;  806.570
475.683;   84.850;   -9.367;  797.699
476.272;   86.465;  -12.637;  730.632
476.861;   88.842;  -10.027;  706.754
477.449;   95.006;   -8.716;  728.487
478.038;   90.321;   -9.577;  692.513
478.627;   91.127;   -9.718;  714.852
479.216;   97.142;   -8.947;  769.441
479.805;  100.533;   -6.256;  783.375
480.393;  100.658;   -7.937; 1008.945
480.982;   99.087;   -7.717;  874.501
481.571;  106.438;   -9.266;  858.333
482.159;  106.552;   -7.636;  705.386
482.748;  105.630;   -9.667;  821.385
483.336;  110.228;  -10.376;  858.209
483.925;  110.894;   -7.147;  774.373
484.513;  117.746;   -7.996;  758.962
485.102;  114.593;  -10.027;  810.965
485.690;  122.971;  -10.446; 1011.050
486.278;  124.996;   -8.446;  979.329
486.867;  125.713;   -6.356;  809.662
487.455;  127.511;   -9.136;  898.229
488.043;  128.897;  -10.646;  748.361
488.631;  137.337;   -7.456; 1005.079
489.220;  141.552;   -6.636;  908.626
489.808;  141.272;  -11.036;  741.415
490.396;  149.041;  -10.246;  914.645
490.984;  154.893;   -8.556;  830.161
491.572;  164.163;   -5.886;  940.315
492.160;  170.814;   -9.486;  919.081
492.748;  181.633;  -10.976;  884.341
493.336;  203.609;   -8.776; 1019.693
493.924;  229.596;   -5.465;  958.077
494.512;  256.103;   -9.986; 1066.638
495.100;  291.602;  -10.636; 1103.280
495.687;  345.652;  -10.885; 1206.373
496.275;  408.178;   -8.126; 1150.796
496.863;  478.141;  -10.586; 1281.171
497.451;  577.679;  -11.926; 1386.805
498.038;  705.378;  -10.885; 1556.729
498.626;  813.276;   -6.315; 1741.407
499.214;  962.975;   -7.326; 2016.609
499.801; 1153.796;  -11.906; 2220.633
500.389; 1403.363;  -10.466; 2312.494
500.976; 1708.799;   -5.236; 2744.849
501.564; 2146.086;   -8.936; 3148.565
502.151; 2514.191;  -13.176; 3515.999
502.738; 2955.592;  -10.646; 3971.274
503.326; 3352.897;   -9.525; 4403.796
503.913; 3748.636;  -10.856; 5161.749
504.500; 4110.265;  -11.586; 5986.420
505.088; 4544.693;  -10.336; 6381.201
505.675; 5072.464;   -6.355; 6925.547
506.262; 5803.624;   -9.046; 7619.060
506.849; 6513.817;  -10.416; 8733.969
507.436; 6973.591;  -10.305; 9790.121
508.023; 7543.895;   -5.496; 9985.472
508.610; 7828.189;   -7.856;10434.618
509.197; 8490.651;  -10.097;11198.435
509.784; 9841.635;  -10.886;12391.194
510.371;10868.396;   -9.315;13603.713
510.958;11592.863;   -9.936;14426.586
511.545;12362.766;   -9.326;15243.775
512.132;13191.104;  -10.075;15945.876
512.719;13690.248;   -7.796;16340.369
513.305;14614.843;  -10.606;18011.766
513.892;15315.109;  -11.486;19754.971
514.479;16674.678;   -9.126;20967.805
515.066;18231.176;   -6.026;22299.793
515.652;19523.287;   -8.466;22908.660
516.239;20717.008;  -10.886;23798.875
516.825;21681.150;  -11.496;25567.275
517.412;22638.766;   -5.796;28154.959
517.998;23212.100;  -10.506;28344.111
518.585;23306.754;  -10.076;27134.219
519.171;23887.385;   -8.315;27268.576
519.758;25210.240;   -8.596;28964.129
520.344;27015.572;   -8.466;30664.494
520.930;27062.320;  -11.006;32550.605
521.516;28203.068;  -10.495;35422.895
522.103;30391.418;   -5.526;38280.004
522.689;30915.955;   -8.746;37835.117
523.275;30475.211;  -11.376;37288.613
523.861;31752.807;  -11.156;37281.395
524.447;32963.066;   -8.135;37846.949
525.033;32600.834;   -7.896;38321.949
525.619;32573.389;  -12.476;38579.285
526.205;33979.523;   -9.516;40622.875
526.791;35983.121;   -6.926;42258.836
527.377;35732.813;   -8.346;42966.902
527.963;36017.719;   -8.717;42018.949
528.549;32627.086;  -11.016;42476.828
529.135;29822.498;   -8.536;41854.852
529.721;30251.293;   -9.666;41237.711
530.306;32296.617;  -10.066;41259.445
530.892;34124.492;  -11.356;41506.047
531.478;36305.145;   -6.596;43559.613
532.063;39282.031;   -8.836;47695.563
532.649;39796.746;  -10.047;50808.324
533.235;40387.711;   -9.746;51787.500
533.820;40580.781;   -6.566;52145.035
534.406;41698.809;  -10.817;51133.488
534.991;41173.113;   -9.416;49996.805
535.576;39383.742;   -9.036;48882.852
536.162;39128.531;   -6.156;46942.285
536.747;38198.375;  -11.607;45711.746
537.333;38626.734;  -11.787;48510.180
537.918;38748.066;  -12.437;50439.891
538.503;37691.902;   -7.196;50863.711
539.088;37373.238;  -10.556;50906.922
539.673;40917.574;   -8.767;52621.965
540.259;43813.465;  -10.026;52368.094
540.844;42645.082;   -7.416;50879.109
541.429;44268.246;   -9.467;52077.777
542.014;47144.219;   -9.527;52716.695
542.599;46529.207;   -9.946;52363.281
543.184;44190.117;   -7.927;53187.137
543.769;45486.398;   -9.297;54697.605
544.354;44958.027;  -10.127;53913.914
544.938;43757.984;   -9.267;49680.164
545.523;45823.543;   -6.506;47386.277
546.108;48766.664;   -9.787;49151.949
546.693;50673.797;  -11.587;51384.637
547.278;50224.414;  -10.986;51853.254
547.862;47397.574;   -8.206;51173.750
548.447;42904.496;  -10.067;51691.395
549.031;42211.836;   -9.637;52456.703
549.616;47067.504;   -9.926;52714.516
550.201;46499.660;   -6.347;52414.598
550.785;47637.688;   -7.917;52355.059
551.370;46738.613;  -10.867;54589.453
551.954;46130.555;   -9.047;58267.348
552.538;47037.137;   -7.827;59062.176
553.123;45506.191;  -10.287;58115.285
553.707;43163.430;  -12.178;56556.285
554.291;44495.758;   -8.717;56201.668
554.876;46988.219;   -7.457;55335.762
555.460;47134.859;  -10.387;54155.703
556.044;48139.125;   -9.618;53721.484
556.628;46900.941;  -11.567;53731.016
557.212;45877.395;   -8.097;54312.531
557.796;44388.559;  -11.077;53797.773
558.380;44332.707;  -11.108;56145.984
558.964;44676.848;   -9.057;57277.930
559.548;46071.566;   -6.977;56459.641
560.132;44424.211;  -11.457;54434.543
560.716;42861.863;  -11.378;54800.617
561.300;43929.828;   -9.577;57606.945
561.884;45280.590;   -7.127;58972.445
562.467;43797.086;   -7.118;57327.570
563.051;43187.289;  -13.358;54962.434
563.635;44168.441;  -10.178;52594.473
564.219;44247.043;   -7.837;50610.410
564.802;45124.629;  -11.398;49551.180
565.386;45094.594;  -12.788;48370.953
565.969;44469.496;   -9.077;48178.871
566.553;43525.137;   -6.207;49957.305
567.136;44183.590;   -8.568;50369.594
567.720;40626.953;  -11.868;49492.004
568.303;38535.188;   -8.268;50616.352
568.887;38547.125;   -8.698;50727.148
569.470;38829.445;   -6.808;51698.379
570.053;37457.539;  -13.188;52122.078
570.637;35951.578;  -12.037;52536.438
571.220;35990.180;   -8.577;51186.098
571.803;36706.223;   -8.498;51032.762
572.386;38757.777;  -10.498;49609.887
572.969;41169.914;   -9.388;48285.926
573.552;39335.242;   -8.338;47624.285
574.135;37927.230;   -8.518;45498.641
574.718;35595.477;  -13.628;41970.434
575.301;34644.613;  -10.893;41447.137
575.884;33693.750;   -8.158;40923.836
576.467;34795.914;  -10.328;45267.723
577.050;36527.063;  -13.058;48175.543
577.633;37973.715;   -9.458;47729.328
578.216;37115.258;   -8.928;47579.793
578.799;36177.504;   -9.358;47820.996
579.381;35129.629;  -11.388;48115.551
579.964;33207.715;  -11.718;47333.766
580.547;34933.488;   -8.588;46668.969
581.129;36132.301;   -8.859;44466.141
581.712;36968.727;  -10.729;44164.922
582.294;37520.016;  -11.118;46477.855
582.877;37302.078;   -5.218;48244.254
583.459;34916.938;   -8.679;47437.895
584.042;33048.438;  -10.709;46943.219
584.624;33520.648;  -11.669;46792.227
585.206;33053.984;   -8.218;46557.250
585.789;33001.820;  -10.569;45793.773
586.371;35872.023;  -11.859;43836.391
586.953;36658.512;  -10.719;42972.492
587.536;37939.469;   -7.198;42487.211
588.118;37990.070;   -8.720;42086.414
588.700;34226.254;  -10.439;43389.930
589.282;33295.227;   -9.198;43646.039
589.864;34138.730;   -9.199;43438.109
590.446;35160.785;  -11.319;43151.926
591.028;35220.402;  -11.159;42781.867
591.610;34218.148;  -11.779;42839.098
592.192;31586.496;   -7.668;42820.402
592.774;30060.926;  -11.949;40724.277
593.356;28755.094;  -12.129;39874.789
593.937;27617.658;  -10.669;39980.648
594.519;29650.365;   -6.509;42069.633
595.101;31875.305;  -10.849;42976.031
595.683;32106.916;  -11.679;44084.441
596.264;33215.711;   -9.049;43478.797
596.846;32661.957;   -8.849;43803.672
597.427;32438.256;   -9.570;42986.934
598.009;34043.922;  -12.620;42832.219
598.591;34520.559;  -10.039;42580.086
599.172;33751.148;  -10.369;43061.805
599.753;33891.941;   -9.140;41691.469
600.335;35440.055;  -11.430;40692.520
600.916;33655.445;   -9.939;39982.422
601.498;31013.445;   -8.479;40318.617
602.079;29480.215;  -10.920;40670.609
602.660;29317.977;  -11.480;41450.898
603.241;30938.830;  -11.699;41137.738
603.823;29801.670;   -9.579;38868.797
604.404;29183.529;  -10.620;38182.785
604.985;30789.398;  -10.450;38078.047
605.566;30669.342;   -9.129;38056.633
606.147;30851.664;   -7.510;37020.418
606.728;32502.893;  -10.660;37883.359
607.309;31236.715;  -11.740;38748.273
607.890;30715.887;   -9.759;38850.230
608.471;30107.682;   -8.250;37457.918
609.051;29197.467;   -9.240;36066.457
609.632;28106.072;  -12.120;35991.074
610.213;28858.920;   -9.110;37402.641
610.794;29625.498;   -8.030;38383.363
611.374;29174.832;   -8.110;40562.387
611.955;29650.133;  -13.560;38533.727
612.536;31009.471;  -11.400;36951.789
613.116;30839.945;   -8.070;37197.891
613.697;31252.289;  -10.830;38411.125
614.277;29703.135;  -11.641;38673.938
614.858;30508.797;  -13.310;37075.863
615.438;29617.441;   -7.460;35092.906
616.019;27040.367;   -7.601;33666.301
616.599;27681.678;  -12.020;34189.023
617.179;29561.957;  -11.780;36952.047
617.760;30587.658;   -8.570;39582.574
618.340;31678.027;  -11.471;38943.977
618.920;32976.652;  -11.170;37594.156
619.500;32637.602;  -11.071;37866.938
620.080;31602.123;   -7.750;37869.043
620.660;32697.678;  -12.711;36868.617
621.241;34026.516;  -10.211;36352.309
621.821;34248.063;  -10.961;35459.520
622.401;33300.590;   -7.720;35207.414
622.980;32717.328;   -8.981;35980.422
623.560;31274.473;   -9.331;37351.328
624.140;29909.297;   -9.850;34388.582
624.720;24857.057;   -7.451;32368.764
625.300;21422.719;   -9.070;32638.629
625.880;24844.221;  -12.601;34599.035
626.459;28792.914;  -11.751;36831.738
627.039;31875.949;   -9.281;38299.098
627.619;31830.967;   -8.801;38289.574
628.198;30309.531;  -12.071;37220.695
628.778;29477.381;   -9.461;37632.563
629.357;30171.398;   -8.491;38003.012
629.937;30082.963;   -9.721;38402.039
630.516;29515.666;   -9.951;37868.801
631.096;29337.736;  -11.731;35760.410
631.675;31743.656;   -8.572;35225.219
632.254;36779.156;  -11.282;35130.289
632.834;36217.363;  -13.322;35794.570
633.413;34406.348;  -10.301;35788.922
633.992;31753.271;   -8.582;34532.863
634.571;32551.316;   -8.352;33590.113
635.151;35595.379;  -11.912;34943.863
635.730;33964.047;  -10.511;35352.523
636.309;30394.240;   -7.731;35366.605
636.888;27905.191;   -9.952;36165.637
637.467;28577.457;  -11.672;37515.902
638.046;30274.572;   -8.901;39288.695
638.625;33470.555;   -7.912;38279.699
639.204;33268.664;  -10.022;37741.598
639.782;31625.395;  -12.252;38364.551
640.361;28014.354;  -10.041;36740.621
640.940;25166.742;  -11.161;34950.082
641.519;25865.139;   -9.701;34137.398
642.097;28795.439;  -11.271;35654.258
642.676;31725.738;   -8.651;35637.957
643.255;32467.631;   -8.711;36567.074
643.833;31610.543;   -9.581;37809.434
644.412;31584.852;  -13.711;37337.293
644.990;30566.885;  -11.811;37018.531
645.569;30375.041;   -9.411;36518.469
646.147;29340.014;  -10.291;36186.430
646.726;29170.049;  -12.401;36267.688
647.304;30542.949;  -10.411;36647.625
647.882;32294.096;   -9.651;39286.742
648.461;33995.496;   -9.631;39157.703
649.039;32440.627;  -11.881;35412.883
649.617;31781.393;   -9.661;34744.918
650.195;31380.469;   -9.301;35403.098
650.773;29974.221;  -10.511;35053.797
651.352;27499.484;  -11.521;33756.816
651.930;25085.139;  -12.211;31868.773
652.508;23611.906;   -9.171;33121.551
653.086;27548.885;   -9.371;33564.793
653.663;30479.623;  -13.161;34054.668
654.241;29239.063;  -13.031;35693.309
654.819;30876.031;   -9.371;36422.906
655.397;31020.980;  -10.511;38213.484
655.975;30638.496;  -10.371;39507.625
656.553;30560.541;  -10.051;39498.223
657.130;28924.645;  -10.061;40395.480
657.708;27945.410;   -9.561;39242.020
658.286;27961.904;  -11.511;38920.020
658.863;29375.088;  -10.261;40202.898
659.441;32470.213;   -7.531;39677.938
660.018;32125.586;   -9.501;40413.355
660.596;31098.018;  -13.301;39931.414
661.173;33077.320;  -11.211;39604.531
661.750;33015.102;   -9.951;39700.070
662.328;31405.402;   -9.390;39292.809
662.905;30512.824;  -11.330;38235.648
663.482;26531.977;   -9.050;36212.305
664.060;24680.246;   -8.240;35944.945
664.637;27530.385;  -10.050;35170.785
665.214;29410.592;  -11.760;34197.523
665.791;30975.414;  -10.530;34549.520
666.368;29821.732;   -9.690;35118.578
666.945;30344.379;   -9.320;36019.418
667.522;32001.037;  -11.860;36048.438
668.099;31686.650;  -10.770;36243.914
668.676;30455.307;   -6.260;35958.875
669.253;29198.523;   -7.000;37384.730
669.830;29856.104;  -10.190;36779.629
670.407;29632.736;   -9.550;35231.289
670.984;29353.490;   -9.260;35544.270
671.560;29816.408;   -9.280;35466.867
672.137;29075.877;  -11.810;34280.863
672.714;29909.264;  -11.490;34632.863
673.290;30536.670;   -7.740;35135.422
673.867;30742.414;  -10.660;36114.480
674.443;30757.691;  -12.230;36152.859
675.020;28997.559;  -10.450;35327.238
675.596;29892.908;   -9.260;35795.176
676.173;30322.301;  -10.780;35430.355
676.749;30115.877;  -13.690;33549.516
677.326;30135.945;  -11.980;32210.012
677.902;30130.475;   -8.630;32068.871
678.478;29529.334;  -10.730;32583.891
679.054;28946.809;  -10.520;32088.928
679.631;29193.604;  -11.920;30978.848
680.207;30739.830;   -7.490;33160.887
680.783;32475.738;   -9.860;35570.363
681.359;31675.570;  -13.380;36125.184
681.935;31032.014;  -12.480;35240.922
682.511;30168.350;   -7.900;34429.961
683.087;30182.818;   -7.710;34463.680
683.663;29724.422;  -11.480;34648.898
684.239;28570.090;  -14.090;34546.457
684.815;28246.344;   -7.560;35586.375
685.390;28485.100;   -9.910;35821.895
685.966;28925.133;  -11.159;35085.871
686.542;31245.520;  -11.169;34198.230
687.118;33449.816;   -5.959;32847.707
687.693;33866.027;  -10.329;32794.027
688.269;33577.105;  -12.059;33072.367
688.844;31779.049;  -10.909;33141.664
689.420;29557.426;   -8.019;33965.742
689.995;27324.475;   -8.399;34655.523
690.571;25956.699;  -10.949;33576.742
691.146;26376.326;   -9.619;32657.219
691.722;25896.764;   -8.999;32526.979
692.297;25617.643;  -11.589;33014.617
692.872;27387.670;  -11.739;34012.254
693.448;27017.607;  -11.059;34237.434
694.023;26217.396;  -10.139;34142.672
694.598;28147.010;   -9.029;34132.031
695.173;28571.287;  -13.319;34205.250
695.748;27758.844;  -10.169;32882.488
696.323;27946.803;   -8.339;32864.906
696.898;28178.395;   -8.169;33170.004
697.473;28023.438;  -12.309;32432.984
698.048;27499.525;  -10.989;31649.303
698.623;27389.094;   -9.329;30778.141
699.198;29324.424;   -9.849;31140.119
699.773;30384.270;  -12.329;31764.299
700.348;28624.826;  -10.389;31780.816
700.922;28601.426;   -9.269;32046.375
701.497;29549.314;   -9.329;32603.574
702.072;29821.199;  -10.789;34799.871
702.646;28506.035;  -10.839;35793.172
703.221;26303.566;   -9.099;35201.590
703.795;28446.266;  -10.939;34764.527
704.370;28942.355;  -12.859;34307.367
704.944;29322.074;  -11.559;33509.887
705.519;30125.471;   -7.939;31388.584
706.093;31513.738;  -10.499;31340.104
706.668;31932.994;  -11.289;32630.281
707.242;30778.420;  -11.509;32728.779
707.816;29150.043;   -9.639;32947.238
708.390;27574.230;  -11.429;33277.855
708.965;28012.873;  -11.869;33834.336
709.539;27893.705;  -11.689;33709.273
710.113;28396.672;  -10.478;33044.313
710.687;28019.588;  -10.228;31953.992
711.261;26374.545;  -13.698;30505.949
711.835;26228.691;  -13.378;30262.369
712.409;27002.455;   -9.698;31254.447
712.983;28968.584;  -11.898;32754.986
713.557;29965.891;  -15.138;34018.824
714.131;29593.615;  -14.098;34579.625
714.704;28658.580;   -9.958;33890.262
715.278;26440.686;  -10.028;33531.102
715.852;25403.840;  -11.148;33601.660
716.425;26143.965;   -9.068;33515.117
716.999;26837.861;  -10.038;33185.555
717.573;27764.824;   -9.798;33905.996
718.146;28822.732;  -12.378;35199.293
718.720;28882.662;  -11.918;35060.551
719.293;28286.600;   -8.088;34973.230
719.867;31202.934;  -10.888;36394.449
720.440;31153.020;  -11.938;36663.008
721.013;29533.266;  -12.818;35102.426
721.587;27941.059;  -10.298;33985.266
722.160;26861.727;  -10.048;33524.965
722.733;25805.100;  -12.108;32987.043
723.306;26039.568;  -10.818;33066.301
723.880;28474.285;   -8.908;33399.500
724.453;30688.295;   -9.878;33468.297
725.026;29862.156;  -11.188;33816.637
725.599;27003.438;  -11.678;32797.996
726.172;27018.676;   -9.618;33187.434
726.745;27900.934;   -8.258;35136.613
727.318;29175.551;  -12.978;35751.730
727.891;29881.566;  -12.148;35890.430
728.463;29806.115;   -8.968;34822.090
729.036;28861.785;  -10.188;32895.086
729.609;29367.186;  -11.788;31823.225
730.182;26289.139;  -11.788;31445.283
730.754;23752.861;  -10.268;32373.223
731.327;23787.566;   -9.998;33676.820
731.900;24048.057;  -12.228;33417.000
732.472;25357.189;  -13.848;31978.498
733.045;27402.424;   -8.698;30368.777
733.617;27503.803;  -10.607;30574.215
734.190;27211.336;  -11.507;31280.975
734.762;24374.166;  -13.647;31674.412
735.334;22495.881;   -9.767;31247.291
735.907;23093.480;   -9.897;29876.211
736.479;23298.664;  -11.637;29808.488
737.051;22981.699;   -9.567;30233.547
737.623;23915.059;   -8.187;31469.086
738.195;24610.996;  -11.187;31784.225
738.768;26413.346;  -12.337;32120.523
739.340;26775.295;  -12.227;32094.342
739.912;25626.508;  -11.057;31312.680
740.484;24134.033;  -10.207;31946.238
741.056;22973.855;  -10.047;32984.059
741.628;24778.600;  -13.627;33897.715
742.199;27017.410;   -7.177;33213.016
742.771;25292.088;  -10.797;31369.113
743.343;22941.744;  -11.997;31865.473
743.915;21934.248;  -12.867;32388.631
744.487;22039.709;   -7.617;31079.568
745.058;22302.297;   -9.557;30570.107
745.630;22732.793;   -9.877;29970.127
746.201;23560.732;  -14.177;29186.766
746.773;24057.682;   -9.237;28805.723
747.344;23839.980;   -9.847;29591.223
747.916;22366.570;  -11.657;31412.201
748.487;22450.646;  -10.587;32194.898
749.059;23540.893;   -8.707;32533.719
749.630;24144.369;  -10.537;32158.518
750.201;23214.502;  -11.687;30855.395
750.773;21500.451;  -11.647;28622.555
751.344;21528.707;   -7.147;28405.732
751.915;22928.869;   -9.757;28461.551
752.486;23049.414;  -12.427;27842.850
753.057;20675.920;  -12.227;27845.008
753.628;19278.207;  -10.417;27728.107
754.199;20370.646;  -11.767;27381.086
754.770;21471.932;  -11.187;25882.203
755.341;21483.672;  -10.507;25886.184
755.912;21566.621;   -9.387;26050.861
756.483;21130.781;  -10.647;26798.779
757.054;19466.840;  -11.837;27048.238
757.625;18189.748;  -12.716;26294.838
758.195;17849.998;   -9.666;26142.076
758.766;17502.076;   -8.656;26392.234
759.337;18297.318;  -12.856;26334.594
759.907;19996.033;  -13.366;27579.652
760.478;20954.592;   -8.576;28352.770
761.048;20425.023;  -10.526;27325.088
761.619;19550.498;  -11.116;26460.428
762.189;19529.578;  -12.136;26029.826
762.760;20528.787;   -9.456;26430.145
763.330;21676.730;   -7.136;26670.902
763.900;21172.545;  -11.786;26603.021
764.471;18605.068;  -11.546;25542.740
765.041;17353.275;   -8.096;24358.459
765.611;17421.730;   -8.876;23991.297
766.181;17802.244;  -12.196;24470.236
766.751;18738.123;  -11.636;24845.975
767.321;18522.928;  -10.156;24533.633
767.891;16624.281;  -11.766;24916.492
768.461;16071.972;  -14.936;24776.771
769.031;16519.834;  -12.356;24757.988
769.601;18092.490;   -7.526;24181.088
770.171;18001.922;  -10.766;23670.387
770.741;17201.844;  -13.176;22960.045
771.311;17299.000;  -10.616;22917.523
771.880;17696.107;   -9.576;23562.941
772.450;17329.262;  -10.336;24216.500
773.020;17285.881;  -13.516;24140.398
773.589;16624.596;  -13.466;24414.857
774.159;15969.609;   -8.686;23858.717
774.729;15570.129;   -9.476;22942.135
775.298;15099.021;  -13.666;22324.033
775.867;14718.350;  -11.716;21140.313
776.437;14820.433;   -9.906;20838.092
777.006;14673.861;  -12.166;20599.510
777.576;14593.890;  -12.356;20508.809
778.145;14686.126;  -11.646;20732.947
778.714;14550.730;   -8.226;21062.465
779.283;13799.855;   -9.556;20949.664
779.853;13293.873;  -14.116;20508.623
780.422;13772.378;  -11.506;20649.082
780.991;13349.103;   -9.556;21527.520
781.560;12145.458;   -9.095;22632.658
782.129;11964.218;  -12.135;23048.277
782.698;12015.240;  -10.865;23438.555
783.267;11650.620;   -9.335;23267.734
783.836;11607.297;  -11.045;22415.133
784.404;12643.388;  -13.865;20443.152
784.973;13269.329;  -13.095;19699.150
785.542;13145.758;  -11.575;19763.828
786.111;12904.762;   -9.705;20341.408
786.679;12446.134;  -12.105;20207.967
787.248;12233.091;  -12.455;19516.465
787.817;12078.708;  -11.535;18900.363
788.385;11683.004;   -9.765;17879.121
788.954;11088.434;  -14.005;17658.301
789.522;10548.729;  -11.955;17788.879
790.090;11105.395;  -10.135;18118.277
790.659;11517.389;  -10.975;18338.736
791.227;11007.382;  -13.375;18508.615
791.795;11435.486;  -12.375;17898.254
792.364;11831.421;  -10.725;17295.133
792.932;12175.267;   -9.715;16822.051
793.500;12330.577;  -12.675;17040.148
794.068;12474.648;  -13.495;17179.787
794.636;12600.579;  -10.885;16664.246
795.204;11986.351;  -11.045;16524.545
795.772;12073.456;  -13.175;17274.564
796.340;11637.160;  -12.445;17891.002
796.908;11435.293;   -9.735;17648.561
797.476;11338.213;   -9.815;17064.080
798.044;10905.726;  -13.985;16672.777
798.612;10079.232;  -13.115;17023.996
799.180; 9672.667;  -10.185;16561.615
799.747; 9607.930;   -9.055;15962.773
800.315; 9347.595;  -12.385;15296.992
800.883; 9012.735;  -15.035;14801.771
801.450; 9025.929;  -10.365;14534.430
802.018; 9090.798;   -9.855;14173.248
802.585; 9234.180;  -11.905;14029.547
803.153; 9274.356;  -11.585;13836.846
803.720; 9075.857;   -9.095;13567.324
804.287; 8638.786;   -9.135;13360.622
804.855; 8223.264;  -11.604;13681.981
805.422; 8088.342;  -11.794;13536.560
805.989; 8106.321;  -10.734;13355.958
806.556; 8266.521;  -10.444;13747.896
807.124; 8476.118;  -12.764;13987.376
807.691; 8428.419;  -12.964;14038.674
808.258; 8244.017;  -11.134;14120.152
808.825; 7952.152;   -9.854;13860.111
809.392; 8026.587;  -10.504;13268.790
809.959; 7534.176;  -13.054;12680.389
810.526; 7087.825;   -8.294;12427.308
811.093; 7129.465;   -8.394;12030.105
811.659; 7779.463;  -12.304;11653.664
812.226; 8311.104;  -13.944;11637.183
812.793; 8025.428;  -10.484;11611.521
813.360; 7394.364;  -10.144;11885.181
813.926; 7069.734;  -11.684;12770.539
814.493; 6853.503;  -13.644;12677.638
815.060; 6459.728;   -9.724;11974.336
815.626; 6446.154;   -9.854;11594.715
816.193; 6868.126;  -13.254;11579.474
816.759; 6892.523;  -13.204;11666.972
817.325; 6926.030;   -9.434;11325.530
817.892; 7291.041;  -10.134;11105.369
818.458; 7738.917;  -13.474;10843.928
819.024; 7375.085;  -11.854;10714.406
819.591; 7055.325;  -10.244;10469.165
820.157; 6834.625;  -10.704;10235.523
820.723; 6322.186;  -12.324;10847.563
821.289; 6013.013;   -9.444;11040.980
821.855; 5936.720;   -8.374;10357.100
822.421; 5945.579;  -10.234; 9978.918
822.987; 5978.381;  -13.294; 9754.177
823.553; 5654.444;  -10.884;10065.755
824.119; 5446.380;   -8.884;10036.294
824.685; 5527.318;   -6.784;10029.192
825.251; 5629.383;  -12.004;10199.230
825.816; 5606.818;  -11.474; 9820.189
826.382; 5378.698;   -9.174; 9297.248
826.948; 5568.989;   -9.214; 9381.347
827.513; 5983.006;  -10.774; 9450.726
828.079; 5814.249;  -11.924; 9472.444
828.645; 5212.709;  -10.543; 9292.643
829.210; 5114.978;  -10.533; 9065.341
829.776; 5116.053;  -10.753; 9132.620
830.341; 5011.574;  -10.173; 9092.878
830.906; 5206.271;  -10.743; 9078.557
831.472; 5565.890;  -11.113; 8534.535
832.037; 5317.783;  -10.603; 8677.874
832.602; 4757.822;  -13.323; 8628.692
833.167; 4478.536;  -10.823; 8879.031
833.733; 4402.150;  -10.113; 9189.790
834.298; 4546.447;  -13.583; 9052.608
834.863; 4627.606;  -12.703; 8895.087
835.428; 4591.568;  -10.523; 8824.266
835.993; 4435.879;   -6.963; 8845.385
836.558; 4265.196;  -10.763; 8888.563
837.123; 4391.219;   -9.903; 8966.582
837.688; 4632.918;   -9.913; 8617.860
838.253; 4893.381;  -10.283; 8590.699
838.817; 5117.375;  -12.963; 8443.797
839.382; 5030.647;  -14.243; 8799.356
839.947; 4697.913;  -10.733; 8810.595
840.511; 4392.445;   -9.383; 8796.394
841.076; 3998.244;  -12.563; 8347.231
841.641; 4029.834;  -12.953; 8224.330
842.205; 4121.688;   -7.043; 8223.349
842.770; 4228.631;   -8.163; 8622.107
843.334; 4403.482;  -12.503; 8410.386
843.898; 4339.434;  -11.693; 8337.465
844.463; 4345.693;  -10.203; 8506.283
845.027; 4107.013;   -9.533; 8280.962
845.591; 3918.499;  -13.443; 8231.141
846.156; 3917.623;  -13.143; 7969.179
846.720; 3812.164;   -9.433; 7768.278
847.284; 3696.267;  -11.033; 7630.957
847.848; 3571.512;  -10.403; 7472.395
848.412; 3483.291;  -11.553; 7437.394
848.976; 3530.927;   -8.393; 7674.592
849.540; 3455.807;   -8.713; 7836.011
850.104; 3557.412;  -12.463; 7913.669
850.668; 3912.314;  -12.973; 7694.508
851.232; 4017.908;  -10.793; 7756.887
851.796; 3855.216;  -10.662; 7926.545
852.359; 3550.671;  -13.082; 7827.844
852.923; 3375.556;  -12.192; 7641.163
853.487; 3191.399;  -11.912; 7342.501
854.050; 3146.750;  -10.892; 7042.820
854.614; 3290.321;  -13.992; 7151.338
855.177; 3431.319;  -11.732; 7105.077
855.741; 3468.095;   -8.962; 6989.675
856.304; 3350.833;   -9.442; 6596.634
856.868; 3293.988;  -14.192; 6356.272
857.431; 3377.418;  -12.702; 6468.571
857.995; 3489.335;   -9.942; 6373.210
858.558; 3494.976;   -9.112; 6324.448
859.121; 3214.504;  -12.932; 6408.327
859.684; 3087.568;  -13.442; 6347.886
860.247; 3205.505;  -10.632; 6321.264
860.810; 3208.268;  -11.272; 6301.903
861.374; 2949.194;   -9.832; 6607.881
861.937; 2686.787;  -11.762; 6408.200
862.500; 2672.420;   -9.722; 6572.639
863.062; 2850.607;  -10.512; 6387.297
863.625; 3020.835;  -11.232; 6190.836
864.188; 3183.025;  -14.112; 5807.254
864.751; 3256.694;  -11.302; 5682.413
865.314; 3154.418;  -10.112; 5547.492
865.876; 2934.420;  -12.182; 5500.150
866.439; 2910.219;  -10.722; 5415.909
867.002; 2861.355;   -9.252; 5501.567
867.564; 2661.426;   -9.572; 5413.946
868.127; 2442.670;  -13.142; 5160.325
868.689; 2337.576;  -12.902; 5133.183
869.252; 2246.464;   -9.732; 5252.382
869.814; 2158.334;   -9.432; 5297.141
870.377; 2165.166;  -11.552; 5390.919
870.939; 2231.933;   -9.052; 5599.898
871.501; 2297.265;  -10.982; 5248.336
872.063; 2302.795;  -12.292; 4854.235
872.626; 2265.882;  -14.912; 4817.074
873.188; 2300.995;  -13.112; 4987.732
873.750; 2271.660;  -13.442; 4868.651
874.312; 2159.483;   -9.402; 4779.330
874.874; 2069.507;  -11.062; 4866.348
875.436; 1981.163;  -13.931; 4718.887
875.998; 1973.998;   -9.561; 4660.005
876.560; 2006.954;  -11.321; 4462.964
877.122; 1956.506;  -12.221; 4145.042
877.683; 1870.949;  -12.191; 4056.481
878.245; 1807.544;  -12.101; 3950.740
878.807; 1850.172;   -8.971; 4058.958
879.369; 1872.245;  -12.071; 3954.677
879.930; 1760.503;  -14.621; 3941.495
880.492; 1687.586;  -10.311; 4067.014
881.053; 1669.533;  -10.901; 3859.633
881.615; 1615.817;  -14.411; 3776.071
882.176; 1593.474;  -13.761; 3734.750
882.738; 1603.476;   -9.181; 3678.489
883.299; 1535.594;  -11.791; 3405.407
883.860; 1362.859;  -13.121; 3351.106
884.422; 1099.477;  -11.211; 3394.044
884.983;  843.284;  -10.091; 3166.443
885.544;  707.473;   -8.461; 3189.802
886.105;  680.719;  -12.361; 3160.360
886.666;  690.166;  -14.141; 3093.059
887.227;  705.965;  -11.361; 2941.957
887.788;  707.945;  -11.401; 2974.836
888.349;  698.835;  -13.791; 2721.214
888.910;  724.188;  -13.191; 2696.493
889.471;  750.889;   -9.881; 2560.172
890.032;  749.632;   -9.881; 2558.190
890.593;  739.155;  -10.371; 2567.669
891.153;  723.662;  -13.301; 2460.307
891.714;  684.617;  -11.431; 2372.046
892.275;  657.140;  -11.291; 2309.505
892.835;  626.726;  -11.471; 2382.543
893.396;  583.935;  -11.541; 2295.502
893.956;  534.561;  -11.181; 2162.420
894.517;  502.650;  -11.741; 2125.439
895.077;  495.387;  -11.671; 2086.978
895.638;  497.946;  -11.311; 2126.316
896.198;  471.041;   -9.831; 1838.275
896.758;  431.875;   -8.421; 1892.813
897.319;  404.591;  -12.351; 1792.232
897.879;  389.543;  -13.511; 1762.751
898.439;  364.826;  -12.001; 1661.149
898.999;  342.539;  -10.180; 1781.468
899.559;  335.078;  -12.030; 1703.347
900.119;  331.384;  -15.710; 1537.525
900.679;  328.110;   -8.900; 1638.384
901.239;  314.377;   -8.340; 1527.902
901.799;  303.890;  -13.910; 1456.441
902.359;  297.068;  -13.460; 1357.140
902.919;  293.069;  -11.490; 1331.118
903.479;  280.567;  -12.110; 1317.257
904.038;  259.976;  -11.720; 1262.595
904.598;  244.401;  -13.610; 1152.034
905.158;  240.900;  -11.040; 1240.893
905.717;  235.345;  -10.900; 1233.691
906.277;  224.036;  -15.080; 1217.330
906.836;  214.502;  -13.380; 1222.408
907.396;  206.696;  -10.780; 1193.047
907.955;  199.188;   -8.500; 1182.526
908.515;  192.799;  -12.760; 1099.364
909.074;  184.769;  -11.900; 1092.863
909.633;  177.058;   -8.950; 1069.121
910.192;  170.776;   -8.770; 1196.460
910.752;  166.625;  -12.390; 1029.960
911.311;  163.506;  -13.680; 1009.780
911.870;  162.239;  -12.370;  971.460
912.429;  163.936;  -10.900; 1094.080
912.988;  161.893;  -11.690; 1081.060
913.547;  158.201;  -13.240;  940.380
914.106;  154.854;  -11.990;  999.420
914.665;  151.674;   -9.990;  984.020
915.224;  150.040;  -12.880; 1035.760
915.782;  150.739;  -12.350;  922.560
916.341;  151.174;   -9.110; 1049.840
916.900;  146.602;   -9.270;  925.260
917.458;  145.727;  -13.240;  884.220
918.017;  144.221;  -13.550;  942.600
918.576;  144.100;  -12.320;  904.440
919.134;  142.198;  -11.490;  837.980
919.693;  140.269;  -13.670;  893.060
920.251;  138.704;  -15.470;  876.500
920.809;  137.297;  -11.290;  839.580
921.368;  137.627;  -10.210;  885.360
921.926;  136.926;  -12.140;  842.940
922.484;  134.939;  -13.080;  903.360
923.042;  134.809;  -11.720;  880.340
923.601;  137.781;   -7.480;  998.680
924.159;  136.421;  -11.570;  935.560
924.717;  132.303;  -13.840;  841.080
925.275;  132.177;  -10.640;  903.240
925.833;  131.986;  -11.540;  779.320
926.391;  133.956;  -12.960;  938.380
926.949;  132.159;  -14.130;  857.680
927.506;  132.135;  -11.750;  903.500
928.064;  132.983;  -10.250;  877.580
928.622;  131.684;  -13.030;  880.100
929.180;  131.700;  -13.400;  814.180
929.737;  132.638;  -10.700;  808.540
930.295;  136.243;  -10.070;  928.480
930.853;  137.370;  -11.960;  849.100
931.410;  137.221;  -13.120;  821.120
931.968;  137.876;  -10.770;  940.660
932.525;  136.542;  -10.680;  909.380
933.082;  137.947;  -13.130;  811.440
933.640;  137.964;  -13.210;  925.900
934.197;  136.704;  -11.060;  886.360
934.754;  138.050;   -9.580;  897.780
935.312;  139.942;  -14.000;  863.340
935.869;  144.615;  -10.710; 1012.980
936.426;  144.980;   -9.860;  872.800
936.983;  146.038;   -9.710;  889.020
937.540;  145.034;  -13.990;  838.280
938.097;  144.977;  -14.040;  940.120
938.654;  143.985;  -10.310;  898.860
939.211;  146.932;  -10.560;  952.480
939.768;  150.333;  -13.900;  915.420
940.324;  153.881;  -14.760;  904.200
940.881;  155.355;  -10.370;  878.500
941.438;  156.005;   -8.260; 1021.200
941.995;  152.129;  -12.540;  992.560
942.551;  149.973;  -14.670;  875.620
943.108;  149.882;  -10.450;  937.920
943.664;  152.517;  -10.750;  869.340
944.221;  154.747;  -11.550; 1088.140
944.777;  152.242;  -14.770;  869.680
945.334;  153.812;  -12.820;  884.840
945.890;  155.042;  -10.130;  946.480
946.446;  155.712;  -13.470;  947.020
947.003;  156.979;  -12.120;  964.940
947.559;  159.618;   -9.980; 1063.040
948.115;  159.327;   -9.080; 1026.540
948.671;  156.608;  -10.830;  967.300
949.227;  153.586;  -12.440;  859.560
949.783;  151.523;  -12.910;  858.900
950.339;  153.221;  -10.270;  991.000
950.895;  153.355;  -13.630; 1023.840
951.451;  152.264;  -15.100;  925.280
952.007;  152.980;  -11.330;  998.540
952.563;  153.578;  -10.580;  937.780
953.118;  152.757;  -13.440;  904.940
953.674;  151.676;  -12.710;  935.780
954.230;  151.844;  -10.350;  949.640
954.785;  149.708;   -9.190;  936.640
955.341;  146.737;  -11.200;  998.160
955.897;  145.098;  -16.560;  834.660
956.452;  146.794;  -12.570;  953.840
957.008;  145.998;   -7.970; 1083.640
957.563;  142.315;  -11.940; 1009.540
958.118;  138.315;  -13.450;  877.700
958.674;  138.720;  -12.030;  946.780
959.229;  139.807;   -9.410; 1013.980
959.784;  136.454;  -12.000;  832.400
960.339;  136.985;  -14.780; 1001.280
960.894;  133.797;   -9.860;  963.760
961.449;  130.156;   -9.970;  859.960
962.004;  130.064;  -10.900; 1212.840
962.559;  124.935;  -13.150;  860.140
963.114;  121.259;  -13.740;  742.480
963.669;  121.829;   -9.820;  915.500
964.224;  120.397;  -13.890;  874.340
964.779;  119.435;  -12.600;  828.420
965.334;  119.859;  -10.950; 1017.860
965.888;  119.464;  -11.170;  875.360
966.443;  122.084;  -12.540;  972.380
966.998;  122.269;  -15.780;  819.460
967.552;  120.265;   -9.760;  908.380
968.107;  117.024;   -9.060;  868.300
968.661;  118.180;  -11.950;  922.440
969.216;  118.087;  -12.800;  856.280
969.770;  118.631;  -11.210;  917.200
970.324;  117.011;  -11.610;  923.140
970.879;  114.854;  -11.370;  947.180
971.433;  110.940;  -12.540;  952.720
971.987;  105.921;  -11.320;  895.340
972.541;  104.061;  -10.720;  917.100
973.095;  103.082;   -9.680; 1009.460
973.649;  101.106;  -11.440;  809.480
974.203;  100.615;  -11.210;  829.040
974.757;  100.430;  -10.240;  855.220
975.311;  100.289;  -13.720;  872.600
975.865;   99.569;  -13.770;  881.820
976.419;   98.412;  -11.690;  857.400
976.973;   98.150;   -9.510;  849.620
977.526;   99.190;  -12.620;  949.920
978.080;   98.893;  -12.010;  796.780
978.634;  100.229;  -10.170;  921.320
979.187;   98.144;   -9.020;  905.400
979.741;   94.915;   -9.820; 1018.380
980.294;   90.344;  -14.870;  789.160
980.848;   88.477;  -12.380;  717.220
981.401;   90.420;  -10.350;  816.540
981.955;   92.513;  -13.720;  844.300
982.508;   91.109;  -11.490;  746.340
983.061;   91.779;  -10.000;  915.260
983.615;   88.161;  -11.480;  798.800
984.168;   85.064;  -13.220;  770.080
984.721;   84.217;  -13.960;  880.760
985.274;   83.048;  -10.870;  867.500
985.827;   82.431;   -9.790;  834.220
986.380;   80.046;  -13.120;  721.340
986.933;   79.164;  -12.450;  864.800
987.486;   77.367;  -10.210;  861.920
988.039;   77.074;   -8.430;  863.100
988.591;   74.136;  -10.520;  893.260
989.144;   71.927;  -14.860;  737.260
989.697;   71.901;  -13.080;  758.740
990.250;   71.947;  -10.150;  858.100
990.802;   70.319;  -13.430;  755.860
991.355;   71.528;  -12.750;  974.880
991.907;   69.573;  -12.040;  864.320
992.460;   67.617;  -11.330;  753.760
993.012;   66.231;  -13.610;  749.540
993.565;   65.451;  -13.460;  711.360
994.117;   67.257;   -9.360;  950.780
994.669;   63.758;  -11.300;  701.320
995.221;   62.043;  -13.540;  791.920
995.774;   59.944;  -13.430;  787.580
996.326;   58.093;  -12.520;  740.220
996.878;   58.408;  -10.950;  838.420
997.430;   56.491;  -14.300;  699.860
997.982;   55.213;  -13.760;  750.140
998.534;   55.065;  -11.530;  739.060
999.086;   53.802;  -10.310;  738.220
999.638;   52.916;  -12.530;  661.380
1000.190;   51.012;  -11.840;  699.320
1000.741;   51.292;  -10.260;  742.700
1001.293;   51.000;   -8.860;  686.020
1001.845;   48.913;  -13.700;  676.640
1002.396;   49.947;  -12.100;  743.400
1002.948;   48.986;  -12.760;  737.400
1003.500;   46.941;  -10.380;  723.780
1004.051;   48.197;  -11.900;  907.580
1004.603;   46.146;  -12.250;  791.820
1005.154;   42.491;  -13.210;  608.980
1005.705;   42.113;  -10.950;  723.960
1006.257;   41.438;  -13.880;  707.220
1006.808;   40.665;  -12.840;  685.460
1007.359;   40.246;  -10.570;  763.240
1007.910;   40.029;   -9.620;  646.640
1008.461;   39.789;  -13.630;  732.940
1009.013;   37.677;  -17.200;  588.340
1009.564;   38.999;  -10.200;  793.520
1010.115;   36.738;  -12.570;  597.040
1010.665;   35.801;  -15.150;  602.160
1011.216;   36.749;  -14.480;  667.920
1011.767;   36.779;  -11.340;  697.920
1012.318;   36.925;   -9.780;  736.980
1012.869;   35.026;  -12.380;  679.000
1013.419;   35.056;  -15.560;  603.120
1013.970;   35.347;  -11.010;  666.640
1014.521;   34.781;  -11.610;  620.620
1015.071;   34.920;  -13.450;  670.380
1015.622;   34.596;  -13.870;  635.460
1016.172;   34.010;  -11.610;  596.820
1016.723;   34.418;  -12.120;  614.380
1017.273;   33.468;  -13.620;  604.160
1017.823;   33.220;  -14.140;  650.340
1018.374;   32.824;  -12.800;  611.760
1018.924;   32.312;  -12.340;  716.880
1019.474;   33.009;  -11.410;  718.880
1020.024;   32.157;  -14.770;  657.580
1020.574;   32.206;   -9.780;  726.160
1021.124;   32.765;   -8.560;  673.580
1021.674;   31.132;  -15.190;  559.120
1022.224;   31.825;  -13.530;  708.940
1022.774;   32.102;  -13.280;  668.820
1023.324;   32.220;  -10.690;  753.520
1023.874;   33.089;  -10.240;  875.760
1024.423;   30.106;  -12.540;  613.700
1024.973;   30.081;  -10.010;  610.760
1025.523;   30.171;  -10.550;  620.960
1026.072;   29.022;  -13.560;  606.420
1026.622;   29.273;  -15.120;  675.740
1027.172;   30.254;  -11.260;  715.660
1027.721;   28.657;  -11.410;  601.220
1028.270;   29.799;  -13.530;  663.400
1028.820;   29.604;  -13.680;  638.080
1029.369;   28.070;  -13.520;  612.700
1029.918;   28.930;  -10.980;  649.840
1030.468;   27.790;  -13.530;  564.780
1031.017;   28.366;  -13.170;  634.800
1031.566;   27.583;  -12.200;  608.900
1032.115;   27.875;   -9.960;  694.500
1032.664;   26.386;  -13.210;  596.480
1033.213;   27.922;  -12.500;  735.420
1033.762;   26.707;  -11.910;  635.620
1034.311;   27.421;   -9.640;  677.220
1034.860;   27.431;  -13.310;  691.000
1035.408;   26.990;  -11.830;  722.720
1035.957;   27.088;  -12.000;  719.540
1036.506;   24.968;  -11.690;  530.800
1037.055;   27.141;  -10.990;  844.320
1037.603;   25.998;  -15.120;  664.000
1038.152;   24.138;  -12.450;  534.760
1038.700;   25.042;  -10.560;  585.740
1039.249;   25.383;  -11.080;  681.220
1039.797;   25.315;  -12.540;  633.360
1040.345;   25.314;  -11.920;  705.420
1040.894;   25.178;  -11.410;  625.300
1041.442;   24.445;  -14.320;  632.200
1041.990;   23.317;  -16.240;  559.160
1042.538;   22.962;  -11.680;  536.180
1043.087;   23.488;  -10.760;  570.860
1043.635;   24.865;  -11.850;  670.500
1044.183;   23.149;  -15.480;  586.400
1044.731;   22.854;  -11.770;  576.000
1045.279;   22.535;  -13.090;  674.920
1045.827;   25.132;  -12.440;  892.400
1046.374;   21.993;  -13.840;  515.420
1046.922;   21.403;  -13.220;  590.580
1047.470;   23.787;  -10.230;  691.300
1048.018;   22.913;  -14.590;  647.960
1048.565;   23.533;  -12.050;  708.600
1049.113;   21.417;  -11.650;  557.000
1049.660;   22.172;  -10.510;  629.660
1050.208;   22.526;  -13.310;  675.640
1050.755;   20.667;  -15.900;  606.580
1051.303;   22.421;  -11.430;  686.820
1051.850;   21.445;   -8.480;  635.120
1052.397;   19.626;  -15.010;  473.960
1052.945;   20.191;  -13.960;  617.760
1053.492;   21.964;  -13.150;  741.840
1054.039;   21.859;   -9.630;  720.180
1054.586;   19.930;  -13.680;  557.240
1055.133;   21.045;  -14.570;  693.140
1055.680;   20.446;  -13.820;  646.620
1056.227;   19.585;  -11.730;  542.780
1056.774;   21.190;  -12.480;  794.980
1057.321;   18.712;  -13.930;  523.260
1057.868;   19.821;  -11.690;  651.320
1058.415;   19.047;   -9.520;  651.980
1058.961;   20.614;  -13.160;  678.940
1059.508;   18.969;  -12.920;  643.820
1060.055;   19.796;  -11.920;  581.780
1060.601;   19.838;  -11.500;  624.300
1061.148;   19.144;  -14.330;  616.820
1061.694;   18.117;  -16.870;  592.580
1062.241;   19.377;  -10.330;  596.320
1062.787;   19.188;  -10.620;  663.140
1063.334;   20.505;  -10.110;  808.560
1063.880;   18.069;  -13.400;  668.360
1064.426;   18.761;  -10.680;  706.820
1064.972;   18.040;   -9.920;  601.340
1065.518;   16.281;  -10.980;  566.640
1066.065;   18.269;  -14.890;  624.460
1066.611;   17.361;  -12.870;  598.800
1067.157;   18.423;  -12.950;  641.860
1067.703;   17.769;  -13.540;  668.480
1068.249;   17.241;  -13.540;  605.220
1068.794;   16.977;  -12.600;  626.880
1069.340;   15.454;  -10.620;  578.960
1069.886;   17.492;  -12.830;  590.700
1070.432;   15.993;  -14.870;  541.720
1070.977;   15.722;  -11.980;  601.080
1071.523;   15.942;   -8.200;  573.060
1072.068;   16.153;  -12.330;  582.000
1072.614;   15.596;  -16.370;  527.760
1073.160;   16.855;  -11.100;  687.040
1073.705;   15.999;  -10.480;  572.520
1074.250;   14.885;  -14.520;  559.900
1074.796;   16.058;  -11.460;  655.160
1075.341;   16.286;  -11.950;  664.100
1075.886;   15.860;  -11.460;  594.240
1076.431;   14.509;  -13.770;  649.880
1076.976;   14.289;  -12.680;  639.220
1077.521;   14.896;  -13.170;  583.080
1078.067;   14.444;  -10.860;  579.400
1078.612;   14.657;  -13.920;  661.620
1079.156;   14.694;  -13.880;  601.540
1079.701;   15.264;  -13.120;  693.260
1080.246;   15.696;   -9.940;  696.300
1080.791;   14.374;  -14.740;  625.020
1081.336;   14.687;  -13.750;  659.320
1081.880;   14.345;  -13.400;  649.680
1082.425;   13.712;  -12.220;  573.480
1082.970;   15.514;  -11.610;  717.040
1083.514;   13.486;  -13.580;  597.000
1084.059;   12.930;  -12.810;  586.720
1084.603;   12.572;  -12.320;  565.840
1085.147;   13.657;  -13.190;  645.220
1085.692;   14.276;  -12.480;  716.800
1086.236;   12.907;  -13.020;  503.140
1086.780;   14.367;   -9.190;  751.440
1087.325;   13.755;  -12.480;  654.620
1087.869;   13.009;  -12.450;  610.700
1088.413;   13.677;  -12.240;  705.040
1088.957;   11.977;   -9.020;  543.400
1089.501;   13.496;  -10.320;  766.640
1090.045;   12.691;  -12.720;  726.480
1090.589;   10.422;  -13.690;  569.920
1091.133;   12.074;  -10.020;  673.340
1091.676;   12.166;  -12.330;  591.940
1092.220;   11.509;  -14.970;  600.920
1092.764;   13.018;  -12.430;  706.960
1093.307;   11.681;   -9.800;  673.780
1093.851;   10.709;  -14.970;  556.540
1094.395;   11.712;  -15.310;  683.140
1094.938;   10.667;  -10.370;  632.520
1095.482;   11.729;  -11.050;  559.800
1096.025;   11.854;  -11.840;  710.880
1096.568;   11.804;  -12.840;  779.280
1097.112;    9.149;  -14.700;  508.180
1097.655;   10.970;   -8.720;  603.000
1098.198;    9.773;  -13.610;  600.180
1098.741;    9.614;  -13.350;  612.860
1099.285;   11.673;  -11.230;  657.300
1099.828;    9.158;  -11.840;  439.400
1100.371;    9.880;  -10.840;  608.160
1100.914;   10.094;  -14.190;  682.660
1101.457;   10.251;  -11.240;  679.900
1101.999;    8.270;  -11.270;  584.680
1102.542;    9.401;  -11.480;  641.440
1103.085;    8.634;  -11.750;  658.500
1103.628;   10.847;  -11.400;  762.060
1104.170;    8.977;  -10.490;  588.280
1104.713;    9.730;  -10.600;  646.700
1105.256;    8.153;  -14.360;  557.440
1105.798;    7.754;  -13.210;  499.980
1106.341;   10.198;  -10.270;  728.900
1106.883;    8.866;  -12.200;  521.340
1107.425;    8.950;  -13.110;  668.180
1107.968;    8.658;  -12.840;  612.380
1108.510;    9.573;   -6.480;  684.960
1109.052;    7.340;  -13.940;  612.620
1109.594;    7.556;  -13.690;  554.440
1110.136;    8.625;  -11.880;  643.220
1110.679;    7.883;   -9.500;  633.080
1111.221;    8.791;  -14.160;  604.460
1111.763;    6.997;  -13.980;  559.220
1112.304;    7.580;  -13.880;  547.140
1112.846;    8.471;  -12.210;  666.240
1113.388;    9.485;  -11.390;  942.180
1113.930;    7.552;  -14.540;  694.200
1114.472;    6.757;  -12.640;  606.540
1115.013;    6.137;  -11.620;  551.280
1115.555;    6.403;  -13.640;  587.100
1116.097;    5.668;  -15.380;  579.480
1116.638;    7.090;  -12.640;  684.600
1117.180;    7.186;   -9.850;  667.740
1117.721;    6.659;  -13.690;  568.580
1118.262;    7.224;  -12.680;  677.960
1118.804;    7.029;  -12.530;  637.340
1119.345;    6.238;  -11.690;  578.400
1119.886;    7.080;  -13.380;  704.040
1120.427;    5.197;  -14.070;  589.020
1120.969;    5.802;  -13.500;  597.920
1121.510;    4.918;  -11.480;  563.060
1122.051;    6.164;  -12.830;  723.580
1122.592;    5.783;  -14.290;  655.420
1123.133;    4.387;  -12.400;  547.940
1123.673;    5.956;  -10.130;  706.480
1124.214;    5.347;  -12.930;  612.460
1124.755;    5.634;  -14.380;  639.460
1125.296;    5.636;  -14.000;  627.320
1125.836;    5.992;  -10.070;  691.500
1126.377;    4.492;  -12.640;  599.660
1126.918;    5.308;  -12.960;  614.980
1127.458;    4.337;  -13.350;  622.220
1127.999;    6.049;  -10.750;  656.980
1128.539;    5.479;  -12.350;  694.240
1129.079;    4.831;  -14.860;  632.720
1129.620;    4.331;  -13.840;  558.100
1130.160;    4.048;  -12.330;  539.480
1130.700;    5.033;  -14.530;  640.840
1131.240;    5.031;  -12.530;  643.700
1131.781;    3.792;  -14.450;  619.680
1132.321;    4.380;   -9.790;  599.120
1132.861;    2.868;  -14.860;  564.200
1133.401;    2.674;  -14.290;  593.940
1133.941;    3.873;  -11.750;  626.280
1134.481;    3.525;   -9.920;  597.580
1135.020;    3.163;  -12.290;  609.160
1135.560;    3.694;  -11.650;  674.940
1136.100;    2.626;  -16.270;  501.160
1136.640;    2.905;  -10.890;  510.480
1137.179;    3.012;  -14.180;  537.960
1137.719;    2.953;  -16.250;  605.400
1138.258;    2.776;  -14.230;  587.360
1138.798;    3.396;   -9.090;  663.780
1139.337;    2.053;  -15.130;  482.840
1139.877;    3.213;  -13.680;  642.360
1140.416;    4.885;  -11.320;  878.060
1140.955;    2.286;  -10.860;  535.380
1141.494;    2.554;  -12.920;  669.280
1142.034;    2.507;  -13.930;  583.520
1142.573;    3.670;  -11.440;  646.280
1143.112;    2.370;  -12.000;  553.480
1143.651;    1.984;  -13.670;  536.480
1144.190;    2.845;  -12.730;  691.640
1144.729;    2.551;  -14.560;  607.420
1145.267;    2.314;  -11.830;  584.900
1145.806;    3.085;  -12.230;  637.040
1146.345;    2.017;  -14.130;  635.020
1146.884;    1.519;  -11.590;  622.500
1147.422;    0.915;  -12.550;  533.060
1147.961;    3.165;  -11.180;  708.460
1148.500;    2.082;  -11.510;  669.720
1149.038;    2.646;  -11.640;  632.500
1149.577;    2.301;  -10.130;  698.640
1150.115;   -0.103;  -13.970;  452.280
1150.653;    1.384;  -14.520;  607.340
1151.192;    1.152;  -12.810;  552.920
1151.730;    0.947;   -9.100;  652.560
1152.268;    0.671;  -12.220;  589.520
1152.806;    0.455;  -14.140;  571.180
1153.344;    0.591;  -12.350;  577.640
1153.882;    1.036;   -8.980;  600.060
1154.421;   -0.286;  -15.190;  470.620
1154.958;    0.426;  -15.210;  595.240
1155.496;    1.107;  -12.850;  645.280
1156.034;    1.373;   -9.940;  721.880
1156.572;    1.421;  -13.570;  667.060
1157.110;   -0.672;  -14.590;  473.940
1157.647;    0.500;  -13.030;  676.960
1158.185;   -0.044;  -12.140;  564.320
1158.723;   -0.877;  -14.390;  509.200
1159.260;   -0.102;  -14.090;  701.700
1159.798;    0.154;  -11.920;  658.160
1160.335;   -0.029;  -11.110;  631.820

