
Integration time [ms]:   3.276
Averaging Nr. [scans]: 1000
Smoothing Nr. [pixels]: 0
Data measured with spectrometer [name]: 7414430SP
Wave   ;Sample   ;Dark     ;Reference
[nm]   ;[counts] ;[counts] ;[counts] 

288.544;  151.367;    7.793;  793.890
289.143;  154.350;    7.462;  681.602
289.742;  154.649;    8.602;  828.814
290.341;  140.201;    1.321;  789.841
290.940;  128.626;   -0.709;  730.702
291.538;  129.438;    0.881;  881.108
292.137;  130.065;    0.122;  792.581
292.736;  134.485;   -1.929;  975.101
293.335;  131.426;   -8.229;  735.086
293.934;  131.238;   -5.279;  781.677
294.532;  129.319;   -1.369; 1031.958
295.131;  115.083;   -7.641;  834.394
295.730;  116.960;   -8.420;  809.588
296.328;  116.147;   -5.611;  783.442
296.927;  115.444;   -5.781;  779.652
297.525;  116.713;   -6.361;  781.236
298.124;  106.532;  -11.382;  654.009
298.722;  110.431;   -7.641;  761.933
299.321;  109.147;   -6.811;  708.597
299.919;  107.110;   -6.991;  751.918
300.518;  103.853;  -10.362;  689.338
301.116;  105.745;   -9.581;  691.381
301.715;  104.719;   -4.891;  730.222
302.313;  103.754;   -8.801;  704.943
302.911;   99.514;   -8.522;  733.830
303.509;  105.688;   -6.171;  925.627
304.108;  102.588;   -7.311;  760.383
304.706;  101.758;   -8.321;  801.664
305.304;   96.416;  -10.222;  796.707
305.902;  101.788;   -6.021;  784.484
306.500;   97.753;   -4.971;  728.200
307.098;   95.864;   -7.061;  746.560
307.696;   94.168;   -8.801;  780.432
308.294;   94.395;   -6.411;  731.359
308.892;   96.463;   -2.901;  759.769
309.490;   93.450;   -5.041;  712.161
310.088;   91.057;   -5.002;  788.444
310.686;   95.130;   -2.041;  821.749
311.284;   90.635;   -2.351;  766.040
311.882;   88.707;   -4.422;  731.225
312.480;   86.035;   -4.192;  697.167
313.078;   86.921;   -1.172;  808.331
313.675;   88.627;   -2.601;  691.600
314.273;   83.158;   -1.312;  797.837
314.871;   82.501;   -3.942;  589.829
315.468;   80.637;   -2.802;  652.090
316.066;   82.313;   -0.701;  694.427
316.664;   76.249;   -4.362;  656.351
317.261;   80.582;   -2.872;  910.128
317.859;   75.887;   -2.022;  768.735
318.456;   75.684;   -0.531;  830.096
319.054;   72.169;   -3.912;  787.828
319.651;   70.770;   -4.752;  759.928
320.249;   69.820;   -2.602;  810.188
320.846;   68.886;   -0.821;  714.286
321.443;   65.790;   -4.642;  832.135
322.041;   62.283;   -5.002;  812.315
322.638;   60.696;   -3.982;  701.456
323.235;   62.232;   -3.411;  665.683
323.833;   58.616;   -7.361;  740.354
324.430;   55.143;   -8.611;  615.900
325.027;   55.739;   -4.061;  876.855
325.624;   55.108;   -4.031;  644.532
326.221;   51.445;   -7.481;  689.717
326.818;   51.553;   -5.281;  818.332
327.415;   54.395;   -7.460;  748.828
328.012;   54.638;   -5.510;  690.585
328.609;   52.695;   -7.880;  731.389
329.206;   50.943;   -8.331;  778.621
329.803;   51.437;   -5.121;  737.841
330.400;   54.525;   -4.510;  704.260
330.997;   56.192;   -6.441;  817.147
331.594;   53.951;   -8.831;  788.185
332.191;   59.715;   -7.621;  728.722
332.787;   62.179;   -4.591;  844.463
333.384;   61.075;   -7.412;  763.093
333.981;   59.531;   -8.293;  815.687
334.578;   62.397;   -7.052;  708.378
335.174;   65.038;   -3.102;  731.469
335.771;   64.098;   -5.943;  836.456
336.367;   61.574;   -7.393;  710.631
336.964;   65.618;   -4.063;  793.266
337.561;   63.039;   -3.813;  731.112
338.157;   57.926;   -4.654;  911.916
338.754;   56.154;   -7.934;  796.589
339.350;   54.000;   -4.414;  722.493
339.946;   56.808;   -4.664;  773.135
340.543;   47.908;   -6.375;  846.136
341.139;   43.258;   -9.815;  720.836
341.735;   40.649;   -4.526;  772.593
342.332;   39.868;   -4.895;  691.472
342.928;   39.932;   -4.295;  795.394
343.524;   33.952;   -5.476;  761.684
344.120;   30.251;   -5.856;  738.562
344.716;   33.001;   -2.155;  723.717
345.313;   31.232;   -6.275;  795.342
345.909;   26.747;   -8.815;  627.336
346.505;   28.400;   -5.305;  740.247
347.101;   28.288;   -2.674;  827.864
347.697;   28.800;   -4.344;  785.398
348.293;   24.144;   -9.975;  627.244
348.889;   24.718;   -5.774;  745.914
349.485;   24.088;   -5.004;  688.205
350.081;   24.564;   -4.704;  772.592
350.676;   20.073;   -6.635;  691.606
351.272;   24.385;   -4.504;  809.530
351.868;   22.893;   -3.914;  780.497
352.464;   21.168;   -9.044;  723.932
353.059;   17.862;   -8.314;  646.017
353.655;   21.338;   -7.024;  777.063
354.251;   21.677;   -5.343;  759.845
354.846;   16.074;   -8.604;  740.646
355.442;   14.173;   -6.945;  753.071
356.038;   15.529;   -7.564;  751.708
356.633;   16.701;   -5.814;  728.594
357.229;   13.713;   -7.364;  724.757
357.824;   12.453;   -8.024;  703.600
358.420;   11.580;   -9.384;  679.726
359.015;   12.885;   -5.104;  695.357
359.610;   12.610;   -6.854;  763.920
360.206;    7.261;  -10.185;  603.240
360.801;    9.950;   -7.054;  646.503
361.396;   12.405;   -5.034;  725.975
361.992;    7.816;   -8.284;  668.220
362.587;    5.207;   -8.625;  670.160
363.182;    6.581;   -7.674;  689.631
363.777;    7.568;   -5.164;  738.242
364.372;    7.270;   -8.604;  737.314
364.967;    3.505;   -9.055;  680.744
365.563;    8.171;   -6.114;  815.567
366.158;    4.957;   -5.814;  685.161
366.753;    5.618;   -7.854;  649.263
367.348;    3.626;   -7.804;  746.056
367.942;    3.988;   -7.954;  697.298
368.537;    3.567;   -4.984;  754.245
369.132;    3.227;   -8.564;  703.428
369.727;   -0.821;   -8.855;  638.079
370.322;    1.168;   -6.245;  580.186
370.917;   -0.415;   -6.425;  710.646
371.511;    2.919;   -6.294;  861.834
372.106;   -0.784;   -7.685;  776.964
372.701;   -3.167;   -7.335;  585.988
373.296;    1.883;   -4.564;  863.135
373.890;   -2.557;  -10.235;  647.840
374.485;   -4.808;   -7.885;  691.199
375.079;   -1.129;   -7.324;  738.685
375.674;    0.561;   -3.494;  812.970
376.268;   -3.570;   -8.525;  691.759
376.863;  -10.076;  -10.086;  580.327
377.457;   -3.540;   -7.025;  662.490
378.052;   -4.959;   -3.585;  764.884
378.646;   -6.212;   -7.595;  741.167
379.240;   -6.685;   -8.335;  721.176
379.835;   -5.506;   -5.785;  636.978
380.429;   -7.574;   -4.335;  562.557
381.023;   -7.428;   -6.805;  779.205
381.617;   -8.485;   -9.195;  680.106
382.212;   -6.720;   -6.905;  685.303
382.806;   -4.854;   -3.745;  760.690
383.400;   -9.952;   -7.745;  672.281
383.994;  -10.664;   -9.765;  664.870
384.588;   -6.791;   -6.564;  697.701
385.182;   -5.156;   -5.344;  726.624
385.776;   -6.901;   -8.514;  706.875
386.370;  -10.360;   -9.555;  681.968
386.964;   -9.060;   -8.715;  684.155
387.558;   -7.004;   -6.174;  598.360
388.152;  -11.256;   -8.725;  681.959
388.745;   -8.941;   -7.965;  814.707
389.339;   -7.384;   -5.924;  747.642
389.933;   -6.239;   -5.524;  695.370
390.527;   -7.459;   -7.114;  859.029
391.120;  -13.859;  -10.725;  595.318
391.714;  -10.911;   -8.035;  711.633
392.308;   -7.215;   -3.574;  780.253
392.901;  -11.743;   -7.245;  642.460
393.495;  -11.878;   -9.285;  595.414
394.089;  -11.305;   -5.895;  760.452
394.682;  -11.494;   -4.295;  697.188
395.275;  -12.238;   -9.875;  719.927
395.869;  -12.562;   -8.485;  667.314
396.462;  -11.956;   -7.455;  616.609
397.056;   -7.837;   -5.424;  776.621
397.649;  -12.871;   -6.605;  731.575
398.242;   -9.803;   -8.224;  712.645
398.836;   -8.901;   -7.474;  766.408
399.429;   -9.738;   -7.094;  631.041
400.022;  -14.160;   -9.475;  665.902
400.615;  -11.334;   -7.145;  805.609
401.208;   -8.930;   -7.174;  691.451
401.802;  -11.253;   -5.515;  699.329
402.395;  -12.422;   -9.875;  683.502
402.988;  -13.107;   -8.845;  696.627
403.581;   -9.927;   -8.874;  646.878
404.174;   -7.705;   -5.324;  686.568
404.767;  -10.901;   -9.575;  638.583
405.360;  -12.952;  -10.965;  621.445
405.953;   -8.011;   -8.764;  759.034
406.545;   -7.500;   -7.514;  725.342
407.138;  -11.296;  -10.025;  618.350
407.731;  -10.680;  -10.034;  613.303
408.324;   -6.282;   -9.374;  660.554
408.917;   -7.170;   -6.534;  681.864
409.509;   -9.675;   -8.004;  740.396
410.102;  -10.674;   -9.875;  643.948
410.695;   -4.736;   -8.604;  665.758
411.287;   -6.299;   -6.794;  599.821
411.880;   -7.304;   -9.334;  585.421
412.472;   -9.658;  -10.254;  613.092
413.065;   -6.970;   -6.714;  629.408
413.657;   -5.564;   -7.234;  576.678
414.250;   -5.895;  -10.544;  646.681
414.842;   -6.794;   -9.744;  676.353
415.434;   -4.106;   -6.994;  570.463
416.027;    0.064;   -5.893;  652.196
416.619;   -2.979;   -7.264;  713.400
417.211;   -3.288;  -10.374;  599.352
417.804;    0.758;   -7.993;  628.499
418.396;   -3.186;   -7.234;  607.643
418.988;   -1.429;   -9.443;  659.238
419.580;   -4.338;  -10.724;  568.276
420.172;   -2.615;  -10.323;  536.196
420.764;    1.706;   -8.793;  672.482
421.356;    1.261;  -11.143;  636.898
421.948;   -0.241;   -8.293;  677.661
422.540;    4.844;   -7.893;  680.027
423.132;    4.804;   -7.082;  600.641
423.724;    0.827;   -8.653;  561.267
424.316;    3.104;  -10.213;  621.345
424.908;    7.047;   -9.762;  591.517
425.500;    6.986;   -5.572;  647.978
426.092;    7.399;   -8.422;  648.268
426.683;    7.317;   -9.283;  684.836
427.275;    9.559;   -7.852;  641.471
427.867;   11.104;   -5.272;  668.948
428.458;   11.261;   -7.682;  732.344
429.050;   10.044;  -10.612;  680.749
429.642;   12.247;   -9.882;  743.124
430.233;   13.215;   -6.962;  569.356
430.825;   13.512;   -6.842;  724.809
431.416;   11.813;   -9.672;  698.241
432.008;   15.033;   -6.552;  651.723
432.599;   15.761;   -6.891;  656.073
433.190;   13.394;  -10.912;  637.670
433.782;   12.558;  -11.172;  590.395
434.373;   19.316;   -6.061;  884.765
434.964;   18.511;   -8.251;  602.920
435.556;   16.119;   -9.722;  634.537
436.147;   19.664;   -9.082;  758.490
436.738;   19.603;   -8.041;  701.099
437.329;   24.311;   -7.341;  721.723
437.920;   16.623;   -8.162;  666.688
438.511;   16.833;  -11.802;  564.526
439.103;   24.335;  -10.191;  623.998
439.694;   25.431;   -7.601;  681.583
440.285;   25.687;   -8.541;  764.432
440.876;   24.471;   -9.751;  845.738
441.466;   24.913;   -9.401;  575.162
442.057;   28.842;   -7.760;  665.814
442.648;   28.568;   -9.971;  746.255
443.239;   26.813;  -11.001;  620.477
443.830;   30.894;   -7.990;  704.958
444.421;   33.146;   -7.910;  655.474
445.011;   29.785;   -8.131;  693.619
445.602;   29.316;   -7.111;  743.126
446.193;   31.245;  -10.920;  488.117
446.783;   36.210;   -6.500;  640.397
447.374;   31.521;   -8.671;  692.759
447.964;   31.787;  -10.781;  713.770
448.555;   40.094;   -9.650;  822.742
449.145;   37.051;   -8.660;  662.853
449.736;   38.374;   -8.990;  803.179
450.326;   37.662;   -9.500;  713.626
450.917;   42.856;   -8.680;  675.324
451.507;   41.339;   -7.520;  600.661
452.097;   42.815;   -8.590;  746.267
452.688;   42.516;  -11.340;  742.160
453.278;   42.939;  -10.100;  566.840
453.868;   47.268;   -6.019;  793.550
454.458;   45.745;   -9.440;  651.141
455.048;   46.669;  -10.560;  711.783
455.639;   47.450;  -11.799;  567.096
456.229;   51.902;   -6.899;  710.694
456.819;   53.001;   -7.389;  751.158
457.409;   53.550;  -11.119;  773.993
457.999;   56.102;   -9.289;  737.505
458.589;   55.980;   -6.139;  686.606
459.179;   56.021;   -8.729;  717.658
459.769;   54.893;   -9.789;  627.099
460.358;   59.536;  -10.259;  797.262
460.948;   58.951;   -7.299;  689.503
461.538;   60.547;  -10.289;  660.677
462.128;   58.795;  -11.269;  664.934
462.717;   65.447;   -9.368;  710.326
463.307;   68.137;   -7.908;  705.846
463.897;   64.546;   -9.599;  656.942
464.486;   63.752;   -9.769;  837.128
465.076;   68.434;   -8.048;  733.776
465.666;   71.611;   -9.358;  652.900
466.255;   69.124;   -7.919;  785.651
466.845;   68.879;  -11.689;  666.749
467.434;   72.466;   -7.818;  725.873
468.023;   73.719;   -7.678;  658.357
468.613;   70.900;  -10.939;  713.946
469.202;   74.757;  -10.118;  646.507
469.791;   78.928;   -9.108;  737.811
470.381;   80.802;   -6.058;  742.813
470.970;   80.269;  -10.428;  711.099
471.559;   80.685;  -10.268;  733.291
472.148;   83.887;   -8.448;  675.737
472.738;   86.242;   -6.917;  765.466
473.327;   85.931;  -11.978;  637.529
473.916;   86.064;  -11.888;  737.446
474.505;   90.309;   -9.437;  751.703
475.094;   93.242;   -6.747;  806.570
475.683;   92.646;   -9.367;  797.699
476.272;   93.153;  -12.637;  730.632
476.861;   97.014;  -10.027;  706.754
477.449;  103.295;   -8.716;  728.487
478.038;   96.881;   -9.577;  692.513
478.627;   98.770;   -9.718;  714.852
479.216;  105.454;   -8.947;  769.441
479.805;  109.493;   -6.256;  783.375
480.393;  108.406;   -7.937; 1008.945
480.982;  107.118;   -7.717;  874.501
481.571;  114.024;   -9.266;  858.333
482.159;  114.002;   -7.636;  705.386
482.748;  115.100;   -9.667;  821.385
483.336;  119.272;  -10.376;  858.209
483.925;  120.698;   -7.147;  774.373
484.513;  127.141;   -7.996;  758.962
485.102;  122.845;  -10.027;  810.965
485.690;  131.935;  -10.446; 1011.050
486.278;  134.669;   -8.446;  979.329
486.867;  135.215;   -6.356;  809.662
487.455;  137.137;   -9.136;  898.229
488.043;  138.435;  -10.646;  748.361
488.631;  147.587;   -7.456; 1005.079
489.220;  152.227;   -6.636;  908.626
489.808;  152.548;  -11.036;  741.415
490.396;  160.477;  -10.246;  914.645
490.984;  166.594;   -8.556;  830.161
491.572;  177.311;   -5.886;  940.315
492.160;  183.089;   -9.486;  919.081
492.748;  195.882;  -10.976;  884.341
493.336;  220.516;   -8.776; 1019.693
493.924;  248.724;   -5.465;  958.077
494.512;  277.968;   -9.986; 1066.638
495.100;  317.982;  -10.636; 1103.280
495.687;  375.045;  -10.885; 1206.373
496.275;  442.773;   -8.126; 1150.796
496.863;  518.889;  -10.586; 1281.171
497.451;  630.175;  -11.926; 1386.805
498.038;  767.162;  -10.885; 1556.729
498.626;  885.983;   -6.315; 1741.407
499.214; 1052.450;   -7.326; 2016.609
499.801; 1257.966;  -11.906; 2220.633
500.389; 1537.315;  -10.466; 2312.494
500.976; 1861.580;   -5.236; 2744.849
501.564; 2337.024;   -8.936; 3148.565
502.151; 2725.786;  -13.176; 3515.999
502.738; 3190.242;  -10.646; 3971.274
503.326; 3630.940;   -9.525; 4403.796
503.913; 4067.587;  -10.856; 5161.749
504.500; 4476.854;  -11.586; 5986.420
505.088; 4939.870;  -10.336; 6381.201
505.675; 5485.923;   -6.355; 6925.547
506.262; 6262.414;   -9.046; 7619.060
506.849; 7047.824;  -10.416; 8733.969
507.436; 7562.632;  -10.305; 9790.121
508.023; 8184.123;   -5.496; 9985.472
508.610; 8521.073;   -7.856;10434.618
509.197; 9235.962;  -10.097;11198.435
509.784;10700.182;  -10.886;12391.194
510.371;11898.682;   -9.315;13603.713
510.958;12753.849;   -9.936;14426.586
511.545;13601.334;   -9.326;15243.775
512.132;14379.631;  -10.075;15945.876
512.719;14860.479;   -7.796;16340.369
513.305;15854.886;  -10.606;18011.766
513.892;16577.125;  -11.486;19754.971
514.479;18065.387;   -9.126;20967.805
515.066;19893.723;   -6.026;22299.793
515.652;21491.689;   -8.466;22908.660
516.239;22759.918;  -10.886;23798.875
516.825;23604.467;  -11.496;25567.275
517.412;24517.289;   -5.796;28154.959
517.998;25198.471;  -10.506;28344.111
518.585;25496.824;  -10.076;27134.219
519.171;26119.447;   -8.315;27268.576
519.758;27423.902;   -8.596;28964.129
520.344;29483.977;   -8.466;30664.494
520.930;29614.135;  -11.006;32550.605
521.516;30691.443;  -10.495;35422.895
522.103;32910.605;   -5.526;38280.004
522.689;33316.039;   -8.746;37835.117
523.275;33075.441;  -11.376;37288.613
523.861;34931.684;  -11.156;37281.395
524.447;36541.266;   -8.135;37846.949
525.033;36450.207;   -7.896;38321.949
525.619;36508.695;  -12.476;38579.285
526.205;38088.199;   -9.516;40622.875
526.791;40641.883;   -6.926;42258.836
527.377;41122.566;   -8.346;42966.902
527.963;42496.258;   -8.717;42018.949
528.549;40994.348;  -11.016;42476.828
529.135;39464.344;   -8.536;41854.852
529.721;38396.582;   -9.666;41237.711
530.306;37499.359;  -10.066;41259.445
530.892;37356.035;  -11.356;41506.047
531.478;38902.965;   -6.596;43559.613
532.063;42066.832;   -8.836;47695.563
532.649;43043.332;  -10.047;50808.324
533.235;43679.977;   -9.746;51787.500
533.820;43732.496;   -6.566;52145.035
534.406;45363.941;  -10.817;51133.488
534.991;45105.059;   -9.416;49996.805
535.576;43516.410;   -9.036;48882.852
536.162;44282.652;   -6.156;46942.285
536.747;44990.594;  -11.607;45711.746
537.333;48345.086;  -11.787;48510.180
537.918;51891.723;  -12.437;50439.891
538.503;50956.969;   -7.196;50863.711
539.088;47103.336;  -10.556;50906.922
539.673;46489.832;   -8.767;52621.965
540.259;46824.633;  -10.026;52368.094
540.844;44544.449;   -7.416;50879.109
541.429;46154.035;   -9.467;52077.777
542.014;48693.527;   -9.527;52716.695
542.599;47699.988;   -9.946;52363.281
543.184;45262.828;   -7.927;53187.137
543.769;46659.340;   -9.297;54697.605
544.354;46335.184;  -10.127;53913.914
544.938;45069.848;   -9.267;49680.164
545.523;47273.445;   -6.506;47386.277
546.108;50606.844;   -9.787;49151.949
546.693;52406.688;  -11.587;51384.637
547.278;51830.379;  -10.986;51853.254
547.862;49083.563;   -8.206;51173.750
548.447;44646.359;  -10.067;51691.395
549.031;43967.766;   -9.637;52456.703
549.616;48904.531;   -9.926;52714.516
550.201;48512.820;   -6.347;52414.598
550.785;49730.387;   -7.917;52355.059
551.370;48608.035;  -10.867;54589.453
551.954;47599.180;   -9.047;58267.348
552.538;48558.695;   -7.827;59062.176
553.123;46983.676;  -10.287;58115.285
553.707;44285.215;  -12.178;56556.285
554.291;45886.363;   -8.717;56201.668
554.876;48731.762;   -7.457;55335.762
555.460;48689.344;  -10.387;54155.703
556.044;49372.063;   -9.618;53721.484
556.628;48264.063;  -11.567;53731.016
557.212;47449.965;   -8.097;54312.531
557.796;45890.762;  -11.077;53797.773
558.380;45995.281;  -11.108;56145.984
558.964;46345.777;   -9.057;57277.930
559.548;47910.430;   -6.977;56459.641
560.132;46201.434;  -11.457;54434.543
560.716;44227.598;  -11.378;54800.617
561.300;45069.020;   -9.577;57606.945
561.884;46503.301;   -7.127;58972.445
562.467;44684.664;   -7.118;57327.570
563.051;44088.273;  -13.358;54962.434
563.635;45330.992;  -10.178;52594.473
564.219;45337.398;   -7.837;50610.410
564.802;46324.633;  -11.398;49551.180
565.386;46243.383;  -12.788;48370.953
565.969;45357.887;   -9.077;48178.871
566.553;44073.656;   -6.207;49957.305
567.136;44981.484;   -8.568;50369.594
567.720;41758.922;  -11.868;49492.004
568.303;39481.723;   -8.268;50616.352
568.887;39408.586;   -8.698;50727.148
569.470;39848.277;   -6.808;51698.379
570.053;38426.609;  -13.188;52122.078
570.637;36818.207;  -12.037;52536.438
571.220;36973.609;   -8.577;51186.098
571.803;37896.805;   -8.498;51032.762
572.386;39649.133;  -10.498;49609.887
572.969;42081.258;   -9.388;48285.926
573.552;40530.262;   -8.338;47624.285
574.135;39138.906;   -8.518;45498.641
574.718;36800.957;  -13.628;41970.434
575.301;35921.750;  -10.893;41447.137
575.884;35042.543;   -8.158;40923.836
576.467;36165.738;  -10.328;45267.723
577.050;37618.086;  -13.058;48175.543
577.633;39017.711;   -9.458;47729.328
578.216;38360.258;   -8.928;47579.793
578.799;37558.746;   -9.358;47820.996
579.381;36540.102;  -11.388;48115.551
579.964;34337.348;  -11.718;47333.766
580.547;36130.719;   -8.588;46668.969
581.129;37302.758;   -8.859;44466.141
581.712;38241.809;  -10.729;44164.922
582.294;38812.809;  -11.118;46477.855
582.877;38540.777;   -5.218;48244.254
583.459;36260.328;   -8.679;47437.895
584.042;34246.949;  -10.709;46943.219
584.624;34549.094;  -11.669;46792.227
585.206;34161.605;   -8.218;46557.250
585.789;33909.410;  -10.569;45793.773
586.371;36698.672;  -11.859;43836.391
586.953;37329.086;  -10.719;42972.492
587.536;38697.848;   -7.198;42487.211
588.118;39281.309;   -8.720;42086.414
588.700;35265.258;  -10.439;43389.930
589.282;34224.133;   -9.198;43646.039
589.864;35158.102;   -9.199;43438.109
590.446;36356.176;  -11.319;43151.926
591.028;36525.926;  -11.159;42781.867
591.610;35357.840;  -11.779;42839.098
592.192;32447.713;   -7.668;42820.402
592.774;30735.459;  -11.949;40724.277
593.356;29334.818;  -12.129;39874.789
593.937;28088.588;  -10.669;39980.648
594.519;30157.590;   -6.509;42069.633
595.101;32345.168;  -10.849;42976.031
595.683;32494.654;  -11.679;44084.441
596.264;33545.980;   -9.049;43478.797
596.846;33257.141;   -8.849;43803.672
597.427;33367.230;   -9.570;42986.934
598.009;35020.570;  -12.620;42832.219
598.591;35560.625;  -10.039;42580.086
599.172;35018.230;  -10.369;43061.805
599.753;35348.898;   -9.140;41691.469
600.335;36902.625;  -11.430;40692.520
600.916;34776.578;   -9.939;39982.422
601.498;31858.877;   -8.479;40318.617
602.079;30238.523;  -10.920;40670.609
602.660;29890.354;  -11.480;41450.898
603.241;31611.318;  -11.699;41137.738
603.823;30434.592;   -9.579;38868.797
604.404;29363.262;  -10.620;38182.785
604.985;31216.215;  -10.450;38078.047
605.566;31502.881;   -9.129;38056.633
606.147;31695.449;   -7.510;37020.418
606.728;33039.012;  -10.660;37883.359
607.309;31531.082;  -11.740;38748.273
607.890;31137.795;   -9.759;38850.230
608.471;30623.682;   -8.250;37457.918
609.051;29749.402;   -9.240;36066.457
609.632;28577.170;  -12.120;35991.074
610.213;29174.176;   -9.110;37402.641
610.794;30033.643;   -8.030;38383.363
611.374;29649.736;   -8.110;40562.387
611.955;30365.055;  -13.560;38533.727
612.536;31794.998;  -11.400;36951.789
613.116;31479.986;   -8.070;37197.891
613.697;31873.162;  -10.830;38411.125
614.277;30028.859;  -11.641;38673.938
614.858;30728.938;  -13.310;37075.863
615.438;29993.773;   -7.460;35092.906
616.019;27628.438;   -7.601;33666.301
616.599;28326.842;  -12.020;34189.023
617.179;30238.658;  -11.780;36952.047
617.760;31397.240;   -8.570;39582.574
618.340;32428.049;  -11.471;38943.977
618.920;33574.215;  -11.170;37594.156
619.500;33194.289;  -11.071;37866.938
620.080;31968.197;   -7.750;37869.043
620.660;33036.020;  -12.711;36868.617
621.241;34364.355;  -10.211;36352.309
621.821;34798.957;  -10.961;35459.520
622.401;33954.078;   -7.720;35207.414
622.980;33331.191;   -8.981;35980.422
623.560;31840.930;   -9.331;37351.328
624.140;30305.064;   -9.850;34388.582
624.720;25337.400;   -7.451;32368.764
625.300;21934.738;   -9.070;32638.629
625.880;25331.293;  -12.601;34599.035
626.459;29157.660;  -11.751;36831.738
627.039;32101.018;   -9.281;38299.098
627.619;32048.422;   -8.801;38289.574
628.198;30653.072;  -12.071;37220.695
628.778;29929.818;   -9.461;37632.563
629.357;30590.563;   -8.491;38003.012
629.937;30404.605;   -9.721;38402.039
630.516;29923.127;   -9.951;37868.801
631.096;29886.633;  -11.731;35760.410
631.675;31793.846;   -8.572;35225.219
632.254;36664.086;  -11.282;35130.289
632.834;36165.969;  -13.322;35794.570
633.413;34615.871;  -10.301;35788.922
633.992;32437.721;   -8.582;34532.863
634.571;33169.613;   -8.352;33590.113
635.151;36332.277;  -11.912;34943.863
635.730;34645.023;  -10.511;35352.523
636.309;30770.688;   -7.731;35366.605
636.888;28001.900;   -9.952;36165.637
637.467;28466.955;  -11.672;37515.902
638.046;30138.422;   -8.901;39288.695
638.625;33387.027;   -7.912;38279.699
639.204;33293.023;  -10.022;37741.598
639.782;31728.846;  -12.252;38364.551
640.361;28258.480;  -10.041;36740.621
640.940;25520.078;  -11.161;34950.082
641.519;26309.439;   -9.701;34137.398
642.097;29011.428;  -11.271;35654.258
642.676;31768.570;   -8.651;35637.957
643.255;32738.813;   -8.711;36567.074
643.833;32031.717;   -9.581;37809.434
644.412;31799.357;  -13.711;37337.293
644.990;30598.617;  -11.811;37018.531
645.569;30191.984;   -9.411;36518.469
646.147;29392.166;  -10.291;36186.430
646.726;29691.547;  -12.401;36267.688
647.304;31255.852;  -10.411;36647.625
647.882;32775.027;   -9.651;39286.742
648.461;34160.527;   -9.631;39157.703
649.039;32660.443;  -11.881;35412.883
649.617;32078.096;   -9.661;34744.918
650.195;31609.002;   -9.301;35403.098
650.773;30237.037;  -10.511;35053.797
651.352;27546.930;  -11.521;33756.816
651.930;25067.379;  -12.211;31868.773
652.508;23720.752;   -9.171;33121.551
653.086;27688.547;   -9.371;33564.793
653.663;30799.293;  -13.161;34054.668
654.241;29360.234;  -13.031;35693.309
654.819;30804.070;   -9.371;36422.906
655.397;30981.457;  -10.511;38213.484
655.975;30418.801;  -10.371;39507.625
656.553;30473.197;  -10.051;39498.223
657.130;29002.762;  -10.061;40395.480
657.708;27893.715;   -9.561;39242.020
658.286;27900.283;  -11.511;38920.020
658.863;29527.982;  -10.261;40202.898
659.441;32664.178;   -7.531;39677.938
660.018;32249.668;   -9.501;40413.355
660.596;30995.713;  -13.301;39931.414
661.173;32765.895;  -11.211;39604.531
661.750;32762.234;   -9.951;39700.070
662.328;31100.154;   -9.390;39292.809
662.905;30284.594;  -11.330;38235.648
663.482;26641.816;   -9.050;36212.305
664.060;24743.604;   -8.240;35944.945
664.637;27281.840;  -10.050;35170.785
665.214;29130.996;  -11.760;34197.523
665.791;30946.230;  -10.530;34549.520
666.368;29911.418;   -9.690;35118.578
666.945;30138.656;   -9.320;36019.418
667.522;31788.359;  -11.860;36048.438
668.099;31417.402;  -10.770;36243.914
668.676;30097.820;   -6.260;35958.875
669.253;28964.707;   -7.000;37384.730
669.830;29663.020;  -10.190;36779.629
670.407;29410.150;   -9.550;35231.289
670.984;28877.375;   -9.260;35544.270
671.560;29546.301;   -9.280;35466.867
672.137;29151.080;  -11.810;34280.863
672.714;30042.164;  -11.490;34632.863
673.290;30704.473;   -7.740;35135.422
673.867;30706.598;  -10.660;36114.480
674.443;30871.564;  -12.230;36152.859
675.020;29078.076;  -10.450;35327.238
675.596;29917.660;   -9.260;35795.176
676.173;30349.852;  -10.780;35430.355
676.749;30039.465;  -13.690;33549.516
677.326;29977.105;  -11.980;32210.012
677.902;29923.592;   -8.630;32068.871
678.478;29331.512;  -10.730;32583.891
679.054;28573.744;  -10.520;32088.928
679.631;28875.184;  -11.920;30978.848
680.207;30517.105;   -7.490;33160.887
680.783;32183.875;   -9.860;35570.363
681.359;31269.393;  -13.380;36125.184
681.935;30726.369;  -12.480;35240.922
682.511;30119.551;   -7.900;34429.961
683.087;30138.742;   -7.710;34463.680
683.663;29520.576;  -11.480;34648.898
684.239;28377.873;  -14.090;34546.457
684.815;28079.867;   -7.560;35586.375
685.390;28349.418;   -9.910;35821.895
685.966;28871.602;  -11.159;35085.871
686.542;31083.410;  -11.169;34198.230
687.118;33451.441;   -5.959;32847.707
687.693;33968.508;  -10.329;32794.027
688.269;33612.867;  -12.059;33072.367
688.844;31874.523;  -10.909;33141.664
689.420;29783.961;   -8.019;33965.742
689.995;27610.088;   -8.399;34655.523
690.571;26161.799;  -10.949;33576.742
691.146;26440.402;   -9.619;32657.219
691.722;26063.377;   -8.999;32526.979
692.297;25496.297;  -11.589;33014.617
692.872;27075.000;  -11.739;34012.254
693.448;26877.105;  -11.059;34237.434
694.023;26047.389;  -10.139;34142.672
694.598;27811.156;   -9.029;34132.031
695.173;28228.697;  -13.319;34205.250
695.748;27420.480;  -10.169;32882.488
696.323;27866.586;   -8.339;32864.906
696.898;28139.818;   -8.169;33170.004
697.473;28005.535;  -12.309;32432.984
698.048;27505.639;  -10.989;31649.303
698.623;27206.430;   -9.329;30778.141
699.198;28960.861;   -9.849;31140.119
699.773;30105.135;  -12.329;31764.299
700.348;28391.184;  -10.389;31780.816
700.922;28446.438;   -9.269;32046.375
701.497;29598.742;   -9.329;32603.574
702.072;29967.670;  -10.789;34799.871
702.646;28453.154;  -10.839;35793.172
703.221;26036.160;   -9.099;35201.590
703.795;28166.461;  -10.939;34764.527
704.370;28765.645;  -12.859;34307.367
704.944;29173.189;  -11.559;33509.887
705.519;29864.645;   -7.939;31388.584
706.093;31109.951;  -10.499;31340.104
706.668;31717.211;  -11.289;32630.281
707.242;30606.734;  -11.509;32728.779
707.816;28972.396;   -9.639;32947.238
708.390;27575.602;  -11.429;33277.855
708.965;27820.131;  -11.869;33834.336
709.539;27303.018;  -11.689;33709.273
710.113;27766.299;  -10.478;33044.313
710.687;27629.912;  -10.228;31953.992
711.261;26204.889;  -13.698;30505.949
711.835;25934.143;  -13.378;30262.369
712.409;26444.182;   -9.698;31254.447
712.983;28447.754;  -11.898;32754.986
713.557;29601.271;  -15.138;34018.824
714.131;29243.164;  -14.098;34579.625
714.704;28218.482;   -9.958;33890.262
715.278;25913.049;  -10.028;33531.102
715.852;24700.348;  -11.148;33601.660
716.425;25393.023;   -9.068;33515.117
716.999;26205.029;  -10.038;33185.555
717.573;27106.523;   -9.798;33905.996
718.146;28165.451;  -12.378;35199.293
718.720;28401.705;  -11.918;35060.551
719.293;27902.176;   -8.088;34973.230
719.867;30691.436;  -10.888;36394.449
720.440;30713.881;  -11.938;36663.008
721.013;29301.879;  -12.818;35102.426
721.587;27772.938;  -10.298;33985.266
722.160;26625.820;  -10.048;33524.965
722.733;25527.602;  -12.108;32987.043
723.306;25585.303;  -10.818;33066.301
723.880;28105.766;   -8.908;33399.500
724.453;30673.688;   -9.878;33468.297
725.026;30005.064;  -11.188;33816.637
725.599;26979.580;  -11.678;32797.996
726.172;26697.219;   -9.618;33187.434
726.745;27513.490;   -8.258;35136.613
727.318;28679.291;  -12.978;35751.730
727.891;29512.355;  -12.148;35890.430
728.463;29374.922;   -8.968;34822.090
729.036;28247.469;  -10.188;32895.086
729.609;28708.395;  -11.788;31823.225
730.182;25828.291;  -11.788;31445.283
730.754;23460.639;  -10.268;32373.223
731.327;23475.955;   -9.998;33676.820
731.900;23504.676;  -12.228;33417.000
732.472;24632.848;  -13.848;31978.498
733.045;26748.359;   -8.698;30368.777
733.617;26888.951;  -10.607;30574.215
734.190;26764.984;  -11.507;31280.975
734.762;24247.313;  -13.647;31674.412
735.334;22268.281;   -9.767;31247.291
735.907;22778.063;   -9.897;29876.211
736.479;23103.352;  -11.637;29808.488
737.051;22823.225;   -9.567;30233.547
737.623;23660.486;   -8.187;31469.086
738.195;24046.184;  -11.187;31784.225
738.768;25628.189;  -12.337;32120.523
739.340;26327.656;  -12.227;32094.342
739.912;25508.150;  -11.057;31312.680
740.484;23984.758;  -10.207;31946.238
741.056;22561.055;  -10.047;32984.059
741.628;24238.488;  -13.627;33897.715
742.199;26386.535;   -7.177;33213.016
742.771;24677.459;  -10.797;31369.113
743.343;22484.566;  -11.997;31865.473
743.915;21485.648;  -12.867;32388.631
744.487;21493.197;   -7.617;31079.568
745.058;21768.959;   -9.557;30570.107
745.630;22236.480;   -9.877;29970.127
746.201;23242.346;  -14.177;29186.766
746.773;24031.049;   -9.237;28805.723
747.344;23868.564;   -9.847;29591.223
747.916;22293.330;  -11.657;31412.201
748.487;22211.758;  -10.587;32194.898
749.059;23184.709;   -8.707;32533.719
749.630;23651.672;  -10.537;32158.518
750.201;22508.188;  -11.687;30855.395
750.773;20842.984;  -11.647;28622.555
751.344;20839.270;   -7.147;28405.732
751.915;22214.629;   -9.757;28461.551
752.486;22575.475;  -12.427;27842.850
753.057;20314.768;  -12.227;27845.008
753.628;18899.850;  -10.417;27728.107
754.199;19879.797;  -11.767;27381.086
754.770;20915.426;  -11.187;25882.203
755.341;20931.260;  -10.507;25886.184
755.912;21139.756;   -9.387;26050.861
756.483;20815.602;  -10.647;26798.779
757.054;19225.861;  -11.837;27048.238
757.625;17964.609;  -12.716;26294.838
758.195;17441.260;   -9.666;26142.076
758.766;17003.291;   -8.656;26392.234
759.337;17753.281;  -12.856;26334.594
759.907;19295.180;  -13.366;27579.652
760.478;20249.381;   -8.576;28352.770
761.048;19892.779;  -10.526;27325.088
761.619;19105.781;  -11.116;26460.428
762.189;18969.826;  -12.136;26029.826
762.760;19701.055;   -9.456;26430.145
763.330;20895.873;   -7.136;26670.902
763.900;20589.082;  -11.786;26603.021
764.471;18265.092;  -11.546;25542.740
765.041;17105.838;   -8.096;24358.459
765.611;17116.422;   -8.876;23991.297
766.181;17397.922;  -12.196;24470.236
766.751;18297.965;  -11.636;24845.975
767.321;18151.492;  -10.156;24533.633
767.891;16424.682;  -11.766;24916.492
768.461;15880.686;  -14.936;24776.771
769.031;16296.904;  -12.356;24757.988
769.601;17920.623;   -7.526;24181.088
770.171;17868.191;  -10.766;23670.387
770.741;16911.186;  -13.176;22960.045
771.311;16828.305;  -10.616;22917.523
771.880;17267.400;   -9.576;23562.941
772.450;17012.189;  -10.336;24216.500
773.020;16855.277;  -13.516;24140.398
773.589;16092.331;  -13.466;24414.857
774.159;15436.737;   -8.686;23858.717
774.729;15139.644;   -9.476;22942.135
775.298;14783.187;  -13.666;22324.033
775.867;14460.173;  -11.716;21140.313
776.437;14614.678;   -9.906;20838.092
777.006;14463.472;  -12.166;20599.510
777.576;14274.279;  -12.356;20508.809
778.145;14209.649;  -11.646;20732.947
778.714;14093.470;   -8.226;21062.465
779.283;13417.706;   -9.556;20949.664
779.853;12896.287;  -14.116;20508.623
780.422;13386.365;  -11.506;20649.082
780.991;12973.900;   -9.556;21527.520
781.560;11795.414;   -9.095;22632.658
782.129;11662.031;  -12.135;23048.277
782.698;11740.240;  -10.865;23438.555
783.267;11369.027;   -9.335;23267.734
783.836;11239.948;  -11.045;22415.133
784.404;12212.917;  -13.865;20443.152
784.973;12866.374;  -13.095;19699.150
785.542;12730.626;  -11.575;19763.828
786.111;12456.633;   -9.705;20341.408
786.679;12016.675;  -12.105;20207.967
787.248;11779.948;  -12.455;19516.465
787.817;11633.042;  -11.535;18900.363
788.385;11339.924;   -9.765;17879.121
788.954;10823.514;  -14.005;17658.301
789.522;10290.146;  -11.955;17788.879
790.090;10819.942;  -10.135;18118.277
790.659;11247.629;  -10.975;18338.736
791.227;10756.809;  -13.375;18508.615
791.795;11124.771;  -12.375;17898.254
792.364;11535.933;  -10.725;17295.133
792.932;11948.974;   -9.715;16822.051
793.500;12075.319;  -12.675;17040.148
794.068;12182.398;  -13.495;17179.787
794.636;12333.700;  -10.885;16664.246
795.204;11686.033;  -11.045;16524.545
795.772;11734.596;  -13.175;17274.564
796.340;11326.649;  -12.445;17891.002
796.908;11117.433;   -9.735;17648.561
797.476;11024.319;   -9.815;17064.080
798.044;10593.407;  -13.985;16672.777
798.612; 9789.726;  -13.115;17023.996
799.180; 9421.557;  -10.185;16561.615
799.747; 9374.225;   -9.055;15962.773
800.315; 9108.574;  -12.385;15296.992
800.883; 8798.385;  -15.035;14801.771
801.450; 8857.297;  -10.365;14534.430
802.018; 8953.778;   -9.855;14173.248
802.585; 9082.512;  -11.905;14029.547
803.153; 9061.443;  -11.585;13836.846
803.720; 8826.113;   -9.095;13567.324
804.287; 8394.552;   -9.135;13360.622
804.855; 7976.550;  -11.604;13681.981
805.422; 7863.436;  -11.794;13536.560
805.989; 7919.169;  -10.734;13355.958
806.556; 8025.587;  -10.444;13747.896
807.124; 8191.659;  -12.764;13987.376
807.691; 8142.902;  -12.964;14038.674
808.258; 8000.907;  -11.134;14120.152
808.825; 7786.259;   -9.854;13860.111
809.392; 7864.849;  -10.504;13268.790
809.959; 7345.316;  -13.054;12680.389
810.526; 6865.452;   -8.294;12427.308
811.093; 6896.361;   -8.394;12030.105
811.659; 7571.870;  -12.304;11653.664
812.226; 8137.528;  -13.944;11637.183
812.793; 7889.631;  -10.484;11611.521
813.360; 7285.194;  -10.144;11885.181
813.926; 6969.397;  -11.684;12770.539
814.493; 6755.882;  -13.644;12677.638
815.060; 6353.087;   -9.724;11974.336
815.626; 6310.728;   -9.854;11594.715
816.193; 6700.369;  -13.254;11579.474
816.759; 6721.624;  -13.204;11666.972
817.325; 6754.086;   -9.434;11325.530
817.892; 7100.393;  -10.134;11105.369
818.458; 7536.032;  -13.474;10843.928
819.024; 7210.863;  -11.854;10714.406
819.591; 6907.428;  -10.244;10469.165
820.157; 6663.548;  -10.704;10235.523
820.723; 6121.450;  -12.324;10847.563
821.289; 5813.568;   -9.444;11040.980
821.855; 5785.109;   -8.374;10357.100
822.421; 5860.990;  -10.234; 9978.918
822.987; 5912.789;  -13.294; 9754.177
823.553; 5555.023;  -10.884;10065.755
824.119; 5319.708;   -8.884;10036.294
824.685; 5403.474;   -6.784;10029.192
825.251; 5510.024;  -12.004;10199.230
825.816; 5475.974;  -11.474; 9820.189
826.382; 5231.406;   -9.174; 9297.248
826.948; 5379.383;   -9.214; 9381.347
827.513; 5795.422;  -10.774; 9450.726
828.079; 5665.557;  -11.924; 9472.444
828.645; 5055.288;  -10.543; 9292.643
829.210; 4904.625;  -10.533; 9065.341
829.776; 4895.357;  -10.753; 9132.620
830.341; 4799.942;  -10.173; 9092.878
830.906; 4988.377;  -10.743; 9078.557
831.472; 5347.238;  -11.113; 8534.535
832.037; 5142.703;  -10.603; 8677.874
832.602; 4623.385;  -13.323; 8628.692
833.167; 4346.865;  -10.823; 8879.031
833.733; 4273.646;  -10.113; 9189.790
834.298; 4425.528;  -13.583; 9052.608
834.863; 4531.102;  -12.703; 8895.087
835.428; 4506.499;  -10.523; 8824.266
835.993; 4326.676;   -6.963; 8845.385
836.558; 4123.269;  -10.763; 8888.563
837.123; 4216.643;   -9.903; 8966.582
837.688; 4456.311;   -9.913; 8617.860
838.253; 4737.666;  -10.283; 8590.699
838.817; 4956.510;  -12.963; 8443.797
839.382; 4864.989;  -14.243; 8799.356
839.947; 4547.669;  -10.733; 8810.595
840.511; 4258.034;   -9.383; 8796.394
841.076; 3890.009;  -12.563; 8347.231
841.641; 3921.952;  -12.953; 8224.330
842.205; 4002.171;   -7.043; 8223.349
842.770; 4078.766;   -8.163; 8622.107
843.334; 4207.031;  -12.503; 8410.386
843.898; 4112.355;  -11.693; 8337.465
844.463; 4112.829;  -10.203; 8506.283
845.027; 3900.046;   -9.533; 8280.962
845.591; 3723.130;  -13.443; 8231.141
846.156; 3743.073;  -13.143; 7969.179
846.720; 3645.006;   -9.433; 7768.278
847.284; 3531.989;  -11.033; 7630.957
847.848; 3415.858;  -10.403; 7472.395
848.412; 3338.103;  -11.553; 7437.394
848.976; 3393.393;   -8.393; 7674.592
849.540; 3308.234;   -8.713; 7836.011
850.104; 3396.159;  -12.463; 7913.669
850.668; 3751.364;  -12.973; 7694.508
851.232; 3866.443;  -10.793; 7756.887
851.796; 3709.577;  -10.662; 7926.545
852.359; 3416.868;  -13.082; 7827.844
852.923; 3243.088;  -12.192; 7641.163
853.487; 3062.972;  -11.912; 7342.501
854.050; 3032.847;  -10.892; 7042.820
854.614; 3194.086;  -13.992; 7151.338
855.177; 3329.171;  -11.732; 7105.077
855.741; 3353.904;   -8.962; 6989.675
856.304; 3219.611;   -9.442; 6596.634
856.868; 3160.204;  -14.192; 6356.272
857.431; 3234.392;  -12.702; 6468.571
857.995; 3328.300;   -9.942; 6373.210
858.558; 3329.498;   -9.112; 6324.448
859.121; 3063.886;  -12.932; 6408.327
859.684; 2939.264;  -13.442; 6347.886
860.247; 3063.601;  -10.632; 6321.264
860.810; 3087.632;  -11.272; 6301.903
861.374; 2846.022;   -9.832; 6607.881
861.937; 2594.766;  -11.762; 6408.200
862.500; 2585.083;   -9.722; 6572.639
863.062; 2749.264;  -10.512; 6387.297
863.625; 2922.940;  -11.232; 6190.836
864.188; 3074.840;  -14.112; 5807.254
864.751; 3126.181;  -11.302; 5682.413
865.314; 3015.535;  -10.112; 5547.492
865.876; 2795.641;  -12.182; 5500.150
866.439; 2760.492;  -10.722; 5415.909
867.002; 2715.852;   -9.252; 5501.567
867.564; 2538.865;   -9.572; 5413.946
868.127; 2340.279;  -13.142; 5160.325
868.689; 2248.936;  -12.902; 5133.183
869.252; 2163.521;   -9.732; 5252.382
869.814; 2071.519;   -9.432; 5297.141
870.377; 2066.103;  -11.552; 5390.919
870.939; 2118.312;   -9.052; 5599.898
871.501; 2181.289;  -10.982; 5248.336
872.063; 2186.415;  -12.292; 4854.235
872.626; 2148.364;  -14.912; 4817.074
873.188; 2164.694;  -13.112; 4987.732
873.750; 2132.807;  -13.442; 4868.651
874.312; 2025.843;   -9.402; 4779.330
874.874; 1941.994;  -11.062; 4866.348
875.436; 1864.611;  -13.931; 4718.887
875.998; 1858.280;   -9.561; 4660.005
876.560; 1886.599;  -11.321; 4462.964
877.122; 1832.075;  -12.221; 4145.042
877.683; 1736.986;  -12.191; 4056.481
878.245; 1668.507;  -12.101; 3950.740
878.807; 1709.118;   -8.971; 4058.958
879.369; 1731.987;  -12.071; 3954.677
879.930; 1635.827;  -14.621; 3941.495
880.492; 1568.666;  -10.311; 4067.014
881.053; 1541.795;  -10.901; 3859.633
881.615; 1450.886;  -14.411; 3776.071
882.176; 1352.784;  -13.761; 3734.750
882.738; 1296.230;   -9.181; 3678.489
883.299; 1267.505;  -11.791; 3405.407
883.860; 1263.469;  -13.121; 3351.106
884.422; 1265.257;  -11.211; 3394.044
884.983; 1226.388;  -10.091; 3166.443
885.544; 1156.929;   -8.461; 3189.802
886.105; 1078.598;  -12.361; 3160.360
886.666; 1007.520;  -14.141; 3093.059
887.227;  948.404;  -11.361; 2941.957
887.788;  885.339;  -11.401; 2974.836
888.349;  826.959;  -13.791; 2721.214
888.910;  822.745;  -13.191; 2696.493
889.471;  829.337;   -9.881; 2560.172
890.032;  813.615;   -9.881; 2558.190
890.593;  792.695;  -10.371; 2567.669
891.153;  767.213;  -13.301; 2460.307
891.714;  718.838;  -11.431; 2372.046
892.275;  685.244;  -11.291; 2309.505
892.835;  653.333;  -11.471; 2382.543
893.396;  605.801;  -11.541; 2295.502
893.956;  553.201;  -11.181; 2162.420
894.517;  514.326;  -11.741; 2125.439
895.077;  504.747;  -11.671; 2086.978
895.638;  504.464;  -11.311; 2126.316
896.198;  475.837;   -9.831; 1838.275
896.758;  434.512;   -8.421; 1892.813
897.319;  404.935;  -12.351; 1792.232
897.879;  389.626;  -13.511; 1762.751
898.439;  364.564;  -12.001; 1661.149
898.999;  341.547;  -10.180; 1781.468
899.559;  334.394;  -12.030; 1703.347
900.119;  330.035;  -15.710; 1537.525
900.679;  324.800;   -8.900; 1638.384
901.239;  310.949;   -8.340; 1527.902
901.799;  300.783;  -13.910; 1456.441
902.359;  294.587;  -13.460; 1357.140
902.919;  287.138;  -11.490; 1331.118
903.479;  275.182;  -12.110; 1317.257
904.038;  254.587;  -11.720; 1262.595
904.598;  241.320;  -13.610; 1152.034
905.158;  237.450;  -11.040; 1240.893
905.717;  231.318;  -10.900; 1233.691
906.277;  220.009;  -15.080; 1217.330
906.836;  210.779;  -13.380; 1222.408
907.396;  202.011;  -10.780; 1193.047
907.955;  195.410;   -8.500; 1182.526
908.515;  190.194;  -12.760; 1099.364
909.074;  183.375;  -11.900; 1092.863
909.633;  177.368;   -8.950; 1069.121
910.192;  173.955;   -8.770; 1196.460
910.752;  168.450;  -12.390; 1029.960
911.311;  164.437;  -13.680; 1009.780
911.870;  161.493;  -12.370;  971.460
912.429;  162.842;  -10.900; 1094.080
912.988;  161.359;  -11.690; 1081.060
913.547;  157.475;  -13.240;  940.380
914.106;  152.424;  -11.990;  999.420
914.665;  149.619;   -9.990;  984.020
915.224;  148.189;  -12.880; 1035.760
915.782;  149.070;  -12.350;  922.560
916.341;  148.673;   -9.110; 1049.840
916.900;  145.115;   -9.270;  925.260
917.458;  141.784;  -13.240;  884.220
918.017;  141.899;  -13.550;  942.600
918.576;  141.633;  -12.320;  904.440
919.134;  139.817;  -11.490;  837.980
919.693;  137.233;  -13.670;  893.060
920.251;  136.236;  -15.470;  876.500
920.809;  135.276;  -11.290;  839.580
921.368;  134.489;  -10.210;  885.360
921.926;  133.508;  -12.140;  842.940
922.484;  132.193;  -13.080;  903.360
923.042;  132.768;  -11.720;  880.340
923.601;  134.353;   -7.480;  998.680
924.159;  132.805;  -11.570;  935.560
924.717;  130.107;  -13.840;  841.080
925.275;  130.339;  -10.640;  903.240
925.833;  129.605;  -11.540;  779.320
926.391;  130.213;  -12.960;  938.380
926.949;  128.481;  -14.130;  857.680
927.506;  128.957;  -11.750;  903.500
928.064;  130.509;  -10.250;  877.580
928.622;  128.851;  -13.030;  880.100
929.180;  128.681;  -13.400;  814.180
929.737;  129.675;  -10.700;  808.540
930.295;  133.001;  -10.070;  928.480
930.853;  133.951;  -11.960;  849.100
931.410;  134.956;  -13.120;  821.120
931.968;  134.505;  -10.770;  940.660
932.525;  134.598;  -10.680;  909.380
933.082;  134.810;  -13.130;  811.440
933.640;  135.251;  -13.210;  925.900
934.197;  133.877;  -11.060;  886.360
934.754;  134.652;   -9.580;  897.780
935.312;  137.412;  -14.000;  863.340
935.869;  141.294;  -10.710; 1012.980
936.426;  141.091;   -9.860;  872.800
936.983;  142.464;   -9.710;  889.020
937.540;  141.363;  -13.990;  838.280
938.097;  141.271;  -14.040;  940.120
938.654;  141.779;  -10.310;  898.860
939.211;  144.757;  -10.560;  952.480
939.768;  147.223;  -13.900;  915.420
940.324;  150.593;  -14.760;  904.200
940.881;  151.431;  -10.370;  878.500
941.438;  152.295;   -8.260; 1021.200
941.995;  148.609;  -12.540;  992.560
942.551;  146.699;  -14.670;  875.620
943.108;  147.305;  -10.450;  937.920
943.664;  149.160;  -10.750;  869.340
944.221;  152.349;  -11.550; 1088.140
944.777;  149.082;  -14.770;  869.680
945.334;  149.683;  -12.820;  884.840
945.890;  151.239;  -10.130;  946.480
946.446;  152.208;  -13.470;  947.020
947.003;  153.581;  -12.120;  964.940
947.559;  156.666;   -9.980; 1063.040
948.115;  155.220;   -9.080; 1026.540
948.671;  152.616;  -10.830;  967.300
949.227;  150.053;  -12.440;  859.560
949.783;  147.376;  -12.910;  858.900
950.339;  149.173;  -10.270;  991.000
950.895;  149.356;  -13.630; 1023.840
951.451;  149.113;  -15.100;  925.280
952.007;  149.781;  -11.330;  998.540
952.563;  150.237;  -10.580;  937.780
953.118;  148.775;  -13.440;  904.940
953.674;  148.895;  -12.710;  935.780
954.230;  148.865;  -10.350;  949.640
954.785;  146.137;   -9.190;  936.640
955.341;  143.321;  -11.200;  998.160
955.897;  141.156;  -16.560;  834.660
956.452;  143.105;  -12.570;  953.840
957.008;  142.060;   -7.970; 1083.640
957.563;  139.248;  -11.940; 1009.540
958.118;  133.485;  -13.450;  877.700
958.674;  133.841;  -12.030;  946.780
959.229;  134.849;   -9.410; 1013.980
959.784;  132.876;  -12.000;  832.400
960.339;  132.023;  -14.780; 1001.280
960.894;  129.708;   -9.860;  963.760
961.449;  125.998;   -9.970;  859.960
962.004;  126.193;  -10.900; 1212.840
962.559;  120.896;  -13.150;  860.140
963.114;  118.766;  -13.740;  742.480
963.669;  118.424;   -9.820;  915.500
964.224;  116.927;  -13.890;  874.340
964.779;  115.802;  -12.600;  828.420
965.334;  116.211;  -10.950; 1017.860
965.888;  115.759;  -11.170;  875.360
966.443;  118.831;  -12.540;  972.380
966.998;  118.651;  -15.780;  819.460
967.552;  117.401;   -9.760;  908.380
968.107;  114.252;   -9.060;  868.300
968.661;  114.437;  -11.950;  922.440
969.216;  115.472;  -12.800;  856.280
969.770;  115.253;  -11.210;  917.200
970.324;  114.089;  -11.610;  923.140
970.879;  111.496;  -11.370;  947.180
971.433;  108.198;  -12.540;  952.720
971.987;  103.582;  -11.320;  895.340
972.541;  101.069;  -10.720;  917.100
973.095;  100.600;   -9.680; 1009.460
973.649;  100.039;  -11.440;  809.480
974.203;   98.505;  -11.210;  829.040
974.757;   99.037;  -10.240;  855.220
975.311;   98.243;  -13.720;  872.600
975.865;   97.576;  -13.770;  881.820
976.419;   95.774;  -11.690;  857.400
976.973;   95.785;   -9.510;  849.620
977.526;   97.306;  -12.620;  949.920
978.080;   96.543;  -12.010;  796.780
978.634;   98.310;  -10.170;  921.320
979.187;   95.937;   -9.020;  905.400
979.741;   93.739;   -9.820; 1018.380
980.294;   88.458;  -14.870;  789.160
980.848;   85.953;  -12.380;  717.220
981.401;   88.828;  -10.350;  816.540
981.955;   91.044;  -13.720;  844.300
982.508;   89.493;  -11.490;  746.340
983.061;   90.103;  -10.000;  915.260
983.615;   85.998;  -11.480;  798.800
984.168;   82.592;  -13.220;  770.080
984.721;   81.610;  -13.960;  880.760
985.274;   81.605;  -10.870;  867.500
985.827;   79.640;   -9.790;  834.220
986.380;   78.269;  -13.120;  721.340
986.933;   76.904;  -12.450;  864.800
987.486;   75.881;  -10.210;  861.920
988.039;   75.176;   -8.430;  863.100
988.591;   72.304;  -10.520;  893.260
989.144;   70.319;  -14.860;  737.260
989.697;   69.943;  -13.080;  758.740
990.250;   69.958;  -10.150;  858.100
990.802;   69.290;  -13.430;  755.860
991.355;   69.326;  -12.750;  974.880
991.907;   67.423;  -12.040;  864.320
992.460;   65.519;  -11.330;  753.760
993.012;   64.839;  -13.610;  749.540
993.565;   63.888;  -13.460;  711.360
994.117;   65.661;   -9.360;  950.780
994.669;   62.649;  -11.300;  701.320
995.221;   60.332;  -13.540;  791.920
995.774;   58.411;  -13.430;  787.580
996.326;   57.126;  -12.520;  740.220
996.878;   56.392;  -10.950;  838.420
997.430;   54.982;  -14.300;  699.860
997.982;   54.581;  -13.760;  750.140
998.534;   53.480;  -11.530;  739.060
999.086;   51.890;  -10.310;  738.220
999.638;   50.598;  -12.530;  661.380
1000.190;   49.644;  -11.840;  699.320
1000.741;   49.721;  -10.260;  742.700
1001.293;   49.855;   -8.860;  686.020
1001.845;   47.766;  -13.700;  676.640
1002.396;   48.229;  -12.100;  743.400
1002.948;   48.276;  -12.760;  737.400
1003.500;   46.294;  -10.380;  723.780
1004.051;   47.176;  -11.900;  907.580
1004.603;   44.748;  -12.250;  791.820
1005.154;   42.156;  -13.210;  608.980
1005.705;   41.154;  -10.950;  723.960
1006.257;   40.605;  -13.880;  707.220
1006.808;   39.621;  -12.840;  685.460
1007.359;   39.443;  -10.570;  763.240
1007.910;   38.487;   -9.620;  646.640
1008.461;   38.574;  -13.630;  732.940
1009.013;   37.245;  -17.200;  588.340
1009.564;   38.490;  -10.200;  793.520
1010.115;   36.132;  -12.570;  597.040
1010.665;   35.433;  -15.150;  602.160
1011.216;   35.605;  -14.480;  667.920
1011.767;   35.638;  -11.340;  697.920
1012.318;   35.545;   -9.780;  736.980
1012.869;   33.824;  -12.380;  679.000
1013.419;   34.664;  -15.560;  603.120
1013.970;   34.285;  -11.010;  666.640
1014.521;   33.637;  -11.610;  620.620
1015.071;   34.346;  -13.450;  670.380
1015.622;   33.421;  -13.870;  635.460
1016.172;   32.666;  -11.610;  596.820
1016.723;   32.103;  -12.120;  614.380
1017.273;   32.219;  -13.620;  604.160
1017.823;   32.183;  -14.140;  650.340
1018.374;   31.490;  -12.800;  611.760
1018.924;   31.996;  -12.340;  716.880
1019.474;   31.564;  -11.410;  718.880
1020.024;   30.407;  -14.770;  657.580
1020.574;   31.302;   -9.780;  726.160
1021.124;   31.731;   -8.560;  673.580
1021.674;   29.812;  -15.190;  559.120
1022.224;   31.351;  -13.530;  708.940
1022.774;   31.337;  -13.280;  668.820
1023.324;   31.696;  -10.690;  753.520
1023.874;   32.037;  -10.240;  875.760
1024.423;   30.063;  -12.540;  613.700
1024.973;   29.562;  -10.010;  610.760
1025.523;   28.373;  -10.550;  620.960
1026.072;   28.147;  -13.560;  606.420
1026.622;   28.574;  -15.120;  675.740
1027.172;   29.933;  -11.260;  715.660
1027.721;   28.625;  -11.410;  601.220
1028.270;   28.054;  -13.530;  663.400
1028.820;   28.370;  -13.680;  638.080
1029.369;   27.775;  -13.520;  612.700
1029.918;   27.564;  -10.980;  649.840
1030.468;   26.970;  -13.530;  564.780
1031.017;   28.240;  -13.170;  634.800
1031.566;   26.684;  -12.200;  608.900
1032.115;   26.902;   -9.960;  694.500
1032.664;   26.363;  -13.210;  596.480
1033.213;   27.122;  -12.500;  735.420
1033.762;   26.296;  -11.910;  635.620
1034.311;   26.260;   -9.640;  677.220
1034.860;   26.557;  -13.310;  691.000
1035.408;   25.461;  -11.830;  722.720
1035.957;   26.601;  -12.000;  719.540
1036.506;   24.175;  -11.690;  530.800
1037.055;   26.725;  -10.990;  844.320
1037.603;   25.231;  -15.120;  664.000
1038.152;   23.787;  -12.450;  534.760
1038.700;   24.409;  -10.560;  585.740
1039.249;   23.975;  -11.080;  681.220
1039.797;   24.371;  -12.540;  633.360
1040.345;   25.045;  -11.920;  705.420
1040.894;   24.450;  -11.410;  625.300
1041.442;   23.363;  -14.320;  632.200
1041.990;   23.351;  -16.240;  559.160
1042.538;   22.725;  -11.680;  536.180
1043.087;   23.046;  -10.760;  570.860
1043.635;   23.797;  -11.850;  670.500
1044.183;   23.307;  -15.480;  586.400
1044.731;   22.018;  -11.770;  576.000
1045.279;   22.651;  -13.090;  674.920
1045.827;   24.741;  -12.440;  892.400
1046.374;   21.936;  -13.840;  515.420
1046.922;   21.424;  -13.220;  590.580
1047.470;   22.694;  -10.230;  691.300
1048.018;   22.238;  -14.590;  647.960
1048.565;   22.583;  -12.050;  708.600
1049.113;   20.977;  -11.650;  557.000
1049.660;   20.837;  -10.510;  629.660
1050.208;   20.977;  -13.310;  675.640
1050.755;   21.087;  -15.900;  606.580
1051.303;   21.025;  -11.430;  686.820
1051.850;   19.949;   -8.480;  635.120
1052.397;   19.875;  -15.010;  473.960
1052.945;   20.060;  -13.960;  617.760
1053.492;   21.739;  -13.150;  741.840
1054.039;   21.781;   -9.630;  720.180
1054.586;   19.404;  -13.680;  557.240
1055.133;   20.058;  -14.570;  693.140
1055.680;   19.977;  -13.820;  646.620
1056.227;   19.163;  -11.730;  542.780
1056.774;   20.985;  -12.480;  794.980
1057.321;   19.423;  -13.930;  523.260
1057.868;   19.195;  -11.690;  651.320
1058.415;   19.193;   -9.520;  651.980
1058.961;   19.570;  -13.160;  678.940
1059.508;   19.134;  -12.920;  643.820
1060.055;   18.839;  -11.920;  581.780
1060.601;   18.582;  -11.500;  624.300
1061.148;   18.676;  -14.330;  616.820
1061.694;   17.668;  -16.870;  592.580
1062.241;   18.459;  -10.330;  596.320
1062.787;   18.725;  -10.620;  663.140
1063.334;   19.529;  -10.110;  808.560
1063.880;   18.217;  -13.400;  668.360
1064.426;   18.319;  -10.680;  706.820
1064.972;   17.168;   -9.920;  601.340
1065.518;   15.953;  -10.980;  566.640
1066.065;   17.789;  -14.890;  624.460
1066.611;   16.769;  -12.870;  598.800
1067.157;   17.282;  -12.950;  641.860
1067.703;   16.871;  -13.540;  668.480
1068.249;   16.836;  -13.540;  605.220
1068.794;   17.050;  -12.600;  626.880
1069.340;   14.947;  -10.620;  578.960
1069.886;   16.591;  -12.830;  590.700
1070.432;   15.577;  -14.870;  541.720
1070.977;   15.120;  -11.980;  601.080
1071.523;   15.380;   -8.200;  573.060
1072.068;   16.119;  -12.330;  582.000
1072.614;   15.255;  -16.370;  527.760
1073.160;   16.883;  -11.100;  687.040
1073.705;   14.682;  -10.480;  572.520
1074.250;   15.060;  -14.520;  559.900
1074.796;   16.418;  -11.460;  655.160
1075.341;   15.750;  -11.950;  664.100
1075.886;   14.583;  -11.460;  594.240
1076.431;   14.631;  -13.770;  649.880
1076.976;   14.330;  -12.680;  639.220
1077.521;   13.765;  -13.170;  583.080
1078.067;   13.965;  -10.860;  579.400
1078.612;   14.312;  -13.920;  661.620
1079.156;   13.992;  -13.880;  601.540
1079.701;   14.851;  -13.120;  693.260
1080.246;   14.714;   -9.940;  696.300
1080.791;   13.707;  -14.740;  625.020
1081.336;   14.507;  -13.750;  659.320
1081.880;   13.438;  -13.400;  649.680
1082.425;   12.948;  -12.220;  573.480
1082.970;   14.042;  -11.610;  717.040
1083.514;   13.190;  -13.580;  597.000
1084.059;   12.455;  -12.810;  586.720
1084.603;   12.922;  -12.320;  565.840
1085.147;   13.170;  -13.190;  645.220
1085.692;   13.380;  -12.480;  716.800
1086.236;   12.430;  -13.020;  503.140
1086.780;   13.348;   -9.190;  751.440
1087.325;   13.265;  -12.480;  654.620
1087.869;   13.000;  -12.450;  610.700
1088.413;   12.414;  -12.240;  705.040
1088.957;   10.761;   -9.020;  543.400
1089.501;   12.873;  -10.320;  766.640
1090.045;   11.807;  -12.720;  726.480
1090.589;   10.585;  -13.690;  569.920
1091.133;   12.132;  -10.020;  673.340
1091.676;   11.743;  -12.330;  591.940
1092.220;   11.163;  -14.970;  600.920
1092.764;   11.946;  -12.430;  706.960
1093.307;   11.343;   -9.800;  673.780
1093.851;   10.339;  -14.970;  556.540
1094.395;   11.008;  -15.310;  683.140
1094.938;   10.400;  -10.370;  632.520
1095.482;   10.841;  -11.050;  559.800
1096.025;   10.856;  -11.840;  710.880
1096.568;   11.979;  -12.840;  779.280
1097.112;    9.411;  -14.700;  508.180
1097.655;   11.058;   -8.720;  603.000
1098.198;    9.329;  -13.610;  600.180
1098.741;    9.969;  -13.350;  612.860
1099.285;   10.462;  -11.230;  657.300
1099.828;    8.473;  -11.840;  439.400
1100.371;   10.019;  -10.840;  608.160
1100.914;    9.819;  -14.190;  682.660
1101.457;   10.038;  -11.240;  679.900
1101.999;    7.864;  -11.270;  584.680
1102.542;    9.439;  -11.480;  641.440
1103.085;    9.220;  -11.750;  658.500
1103.628;    9.291;  -11.400;  762.060
1104.170;    8.457;  -10.490;  588.280
1104.713;    9.201;  -10.600;  646.700
1105.256;    8.275;  -14.360;  557.440
1105.798;    7.769;  -13.210;  499.980
1106.341;    9.601;  -10.270;  728.900
1106.883;    7.780;  -12.200;  521.340
1107.425;    8.493;  -13.110;  668.180
1107.968;    7.799;  -12.840;  612.380
1108.510;    8.808;   -6.480;  684.960
1109.052;    6.753;  -13.940;  612.620
1109.594;    7.411;  -13.690;  554.440
1110.136;    8.361;  -11.880;  643.220
1110.679;    7.693;   -9.500;  633.080
1111.221;    7.859;  -14.160;  604.460
1111.763;    7.071;  -13.980;  559.220
1112.304;    6.647;  -13.880;  547.140
1112.846;    7.382;  -12.210;  666.240
1113.388;    9.918;  -11.390;  942.180
1113.930;    6.778;  -14.540;  694.200
1114.472;    6.779;  -12.640;  606.540
1115.013;    5.683;  -11.620;  551.280
1115.555;    6.182;  -13.640;  587.100
1116.097;    5.559;  -15.380;  579.480
1116.638;    6.564;  -12.640;  684.600
1117.180;    7.013;   -9.850;  667.740
1117.721;    6.739;  -13.690;  568.580
1118.262;    6.901;  -12.680;  677.960
1118.804;    6.642;  -12.530;  637.340
1119.345;    5.425;  -11.690;  578.400
1119.886;    6.339;  -13.380;  704.040
1120.427;    5.343;  -14.070;  589.020
1120.969;    5.247;  -13.500;  597.920
1121.510;    4.599;  -11.480;  563.060
1122.051;    5.172;  -12.830;  723.580
1122.592;    4.747;  -14.290;  655.420
1123.133;    4.785;  -12.400;  547.940
1123.673;    5.743;  -10.130;  706.480
1124.214;    4.693;  -12.930;  612.460
1124.755;    5.360;  -14.380;  639.460
1125.296;    5.358;  -14.000;  627.320
1125.836;    5.818;  -10.070;  691.500
1126.377;    4.190;  -12.640;  599.660
1126.918;    5.198;  -12.960;  614.980
1127.458;    4.353;  -13.350;  622.220
1127.999;    4.237;  -10.750;  656.980
1128.539;    5.122;  -12.350;  694.240
1129.079;    4.180;  -14.860;  632.720
1129.620;    3.095;  -13.840;  558.100
1130.160;    3.860;  -12.330;  539.480
1130.700;    4.848;  -14.530;  640.840
1131.240;    4.707;  -12.530;  643.700
1131.781;    3.563;  -14.450;  619.680
1132.321;    3.462;   -9.790;  599.120
1132.861;    2.943;  -14.860;  564.200
1133.401;    2.855;  -14.290;  593.940
1133.941;    3.974;  -11.750;  626.280
1134.481;    3.289;   -9.920;  597.580
1135.020;    3.381;  -12.290;  609.160
1135.560;    3.738;  -11.650;  674.940
1136.100;    2.743;  -16.270;  501.160
1136.640;    2.774;  -10.890;  510.480
1137.179;    2.708;  -14.180;  537.960
1137.719;    2.460;  -16.250;  605.400
1138.258;    2.719;  -14.230;  587.360
1138.798;    3.167;   -9.090;  663.780
1139.337;    1.372;  -15.130;  482.840
1139.877;    2.514;  -13.680;  642.360
1140.416;    4.703;  -11.320;  878.060
1140.955;    1.786;  -10.860;  535.380
1141.494;    1.931;  -12.920;  669.280
1142.034;    2.231;  -13.930;  583.520
1142.573;    3.075;  -11.440;  646.280
1143.112;    1.573;  -12.000;  553.480
1143.651;    2.154;  -13.670;  536.480
1144.190;    2.561;  -12.730;  691.640
1144.729;    2.381;  -14.560;  607.420
1145.267;    2.089;  -11.830;  584.900
1145.806;    2.699;  -12.230;  637.040
1146.345;    1.035;  -14.130;  635.020
1146.884;    1.355;  -11.590;  622.500
1147.422;    0.709;  -12.550;  533.060
1147.961;    2.843;  -11.180;  708.460
1148.500;    2.016;  -11.510;  669.720
1149.038;    1.549;  -11.640;  632.500
1149.577;    1.934;  -10.130;  698.640
1150.115;    0.320;  -13.970;  452.280
1150.653;    1.430;  -14.520;  607.340
1151.192;    0.655;  -12.810;  552.920
1151.730;    1.040;   -9.100;  652.560
1152.268;    0.601;  -12.220;  589.520
1152.806;    0.409;  -14.140;  571.180
1153.344;   -0.476;  -12.350;  577.640
1153.882;    0.915;   -8.980;  600.060
1154.421;   -0.940;  -15.190;  470.620
1154.958;    0.119;  -15.210;  595.240
1155.496;    1.740;  -12.850;  645.280
1156.034;    1.197;   -9.940;  721.880
1156.572;    1.901;  -13.570;  667.060
1157.110;   -0.358;  -14.590;  473.940
1157.647;    1.365;  -13.030;  676.960
1158.185;   -0.057;  -12.140;  564.320
1158.723;   -0.957;  -14.390;  509.200
1159.260;    0.133;  -14.090;  701.700
1159.798;    0.573;  -11.920;  658.160
1160.335;    0.130;  -11.110;  631.820

