
Integration time [ms]:   3.276
Averaging Nr. [scans]: 1000
Smoothing Nr. [pixels]: 0
Data measured with spectrometer [name]: 7414430SP
Wave   ;Sample   ;Dark     ;Reference
[nm]   ;[counts] ;[counts] ;[counts] 

288.544;  151.384;    7.793;  793.890
289.143;  153.951;    7.462;  681.602
289.742;  155.264;    8.602;  828.814
290.341;  141.016;    1.321;  789.841
290.940;  129.211;   -0.709;  730.702
291.538;  130.374;    0.881;  881.108
292.137;  130.845;    0.122;  792.581
292.736;  134.647;   -1.929;  975.101
293.335;  131.121;   -8.229;  735.086
293.934;  131.365;   -5.279;  781.677
294.532;  129.967;   -1.369; 1031.958
295.131;  115.553;   -7.641;  834.394
295.730;  116.500;   -8.420;  809.588
296.328;  116.324;   -5.611;  783.442
296.927;  115.929;   -5.781;  779.652
297.525;  116.041;   -6.361;  781.236
298.124;  107.563;  -11.382;  654.009
298.722;  110.466;   -7.641;  761.933
299.321;  108.915;   -6.811;  708.597
299.919;  107.236;   -6.991;  751.918
300.518;  103.883;  -10.362;  689.338
301.116;  105.534;   -9.581;  691.381
301.715;  105.271;   -4.891;  730.222
302.313;  103.968;   -8.801;  704.943
302.911;  100.082;   -8.522;  733.830
303.509;  104.824;   -6.171;  925.627
304.108;  102.863;   -7.311;  760.383
304.706;  101.703;   -8.321;  801.664
305.304;   96.105;  -10.222;  796.707
305.902;  102.223;   -6.021;  784.484
306.500;   97.534;   -4.971;  728.200
307.098;   96.239;   -7.061;  746.560
307.696;   93.723;   -8.801;  780.432
308.294;   94.298;   -6.411;  731.359
308.892;   96.433;   -2.901;  759.769
309.490;   92.795;   -5.041;  712.161
310.088;   90.597;   -5.002;  788.444
310.686;   94.950;   -2.041;  821.749
311.284;   91.055;   -2.351;  766.040
311.882;   88.759;   -4.422;  731.225
312.480;   85.509;   -4.192;  697.167
313.078;   87.500;   -1.172;  808.331
313.675;   87.607;   -2.601;  691.600
314.273;   83.187;   -1.312;  797.837
314.871;   82.538;   -3.942;  589.829
315.468;   79.745;   -2.802;  652.090
316.066;   82.886;   -0.701;  694.427
316.664;   75.969;   -4.362;  656.351
317.261;   80.108;   -2.872;  910.128
317.859;   75.746;   -2.022;  768.735
318.456;   76.273;   -0.531;  830.096
319.054;   72.236;   -3.912;  787.828
319.651;   71.179;   -4.752;  759.928
320.249;   69.949;   -2.602;  810.188
320.846;   67.650;   -0.821;  714.286
321.443;   64.870;   -4.642;  832.135
322.041;   62.069;   -5.002;  812.315
322.638;   59.336;   -3.982;  701.456
323.235;   61.535;   -3.411;  665.683
323.833;   58.567;   -7.361;  740.354
324.430;   53.083;   -8.611;  615.900
325.027;   54.166;   -4.061;  876.855
325.624;   53.536;   -4.031;  644.532
326.221;   50.946;   -7.481;  689.717
326.818;   50.683;   -5.281;  818.332
327.415;   53.189;   -7.460;  748.828
328.012;   53.886;   -5.510;  690.585
328.609;   52.065;   -7.880;  731.389
329.206;   49.959;   -8.331;  778.621
329.803;   49.989;   -5.121;  737.841
330.400;   53.375;   -4.510;  704.260
330.997;   53.922;   -6.441;  817.147
331.594;   52.771;   -8.831;  788.185
332.191;   57.443;   -7.621;  728.722
332.787;   60.571;   -4.591;  844.463
333.384;   59.522;   -7.412;  763.093
333.981;   58.233;   -8.293;  815.687
334.578;   60.403;   -7.052;  708.378
335.174;   64.187;   -3.102;  731.469
335.771;   63.476;   -5.943;  836.456
336.367;   60.615;   -7.393;  710.631
336.964;   64.284;   -4.063;  793.266
337.561;   62.087;   -3.813;  731.112
338.157;   57.793;   -4.654;  911.916
338.754;   55.633;   -7.934;  796.589
339.350;   53.350;   -4.414;  722.493
339.946;   55.570;   -4.664;  773.135
340.543;   47.087;   -6.375;  846.136
341.139;   41.150;   -9.815;  720.836
341.735;   39.460;   -4.526;  772.593
342.332;   38.543;   -4.895;  691.472
342.928;   38.172;   -4.295;  795.394
343.524;   32.894;   -5.476;  761.684
344.120;   28.355;   -5.856;  738.562
344.716;   32.413;   -2.155;  723.717
345.313;   30.209;   -6.275;  795.342
345.909;   24.658;   -8.815;  627.336
346.505;   26.140;   -5.305;  740.247
347.101;   27.380;   -2.674;  827.864
347.697;   27.890;   -4.344;  785.398
348.293;   21.309;   -9.975;  627.244
348.889;   23.020;   -5.774;  745.914
349.485;   22.389;   -5.004;  688.205
350.081;   22.749;   -4.704;  772.592
350.676;   18.125;   -6.635;  691.606
351.272;   22.375;   -4.504;  809.530
351.868;   21.535;   -3.914;  780.497
352.464;   18.878;   -9.044;  723.932
353.059;   15.177;   -8.314;  646.017
353.655;   19.191;   -7.024;  777.063
354.251;   20.083;   -5.343;  759.845
354.846;   14.509;   -8.604;  740.646
355.442;   12.404;   -6.945;  753.071
356.038;   13.564;   -7.564;  751.708
356.633;   14.268;   -5.814;  728.594
357.229;   12.563;   -7.364;  724.757
357.824;   10.266;   -8.024;  703.600
358.420;   10.183;   -9.384;  679.726
359.015;   10.771;   -5.104;  695.357
359.610;   10.902;   -6.854;  763.920
360.206;    5.139;  -10.185;  603.240
360.801;    7.646;   -7.054;  646.503
361.396;   10.179;   -5.034;  725.975
361.992;    4.766;   -8.284;  668.220
362.587;    2.461;   -8.625;  670.160
363.182;    4.649;   -7.674;  689.631
363.777;    5.595;   -5.164;  738.242
364.372;    5.355;   -8.604;  737.314
364.967;    1.350;   -9.055;  680.744
365.563;    5.438;   -6.114;  815.567
366.158;    3.367;   -5.814;  685.161
366.753;    2.729;   -7.854;  649.263
367.348;    1.927;   -7.804;  746.056
367.942;    1.317;   -7.954;  697.298
368.537;    1.041;   -4.984;  754.245
369.132;    1.192;   -8.564;  703.428
369.727;   -3.189;   -8.855;  638.079
370.322;   -2.130;   -6.245;  580.186
370.917;   -2.028;   -6.425;  710.646
371.511;    0.755;   -6.294;  861.834
372.106;   -2.771;   -7.685;  776.964
372.701;   -6.606;   -7.335;  585.988
373.296;    0.096;   -4.564;  863.135
373.890;   -5.517;  -10.235;  647.840
374.485;   -7.022;   -7.885;  691.199
375.079;   -3.825;   -7.324;  738.685
375.674;   -2.235;   -3.494;  812.970
376.268;   -6.602;   -8.525;  691.759
376.863;  -12.419;  -10.086;  580.327
377.457;   -6.673;   -7.025;  662.490
378.052;   -7.993;   -3.585;  764.884
378.646;   -7.865;   -7.595;  741.167
379.240;   -9.316;   -8.335;  721.176
379.835;   -7.673;   -5.785;  636.978
380.429;   -9.606;   -4.335;  562.557
381.023;   -9.307;   -6.805;  779.205
381.617;  -12.643;   -9.195;  680.106
382.212;   -9.654;   -6.905;  685.303
382.806;   -8.228;   -3.745;  760.690
383.400;  -12.537;   -7.745;  672.281
383.994;  -13.685;   -9.765;  664.870
384.588;   -9.607;   -6.564;  697.701
385.182;   -7.489;   -5.344;  726.624
385.776;   -8.950;   -8.514;  706.875
386.370;  -13.355;   -9.555;  681.968
386.964;  -11.953;   -8.715;  684.155
387.558;  -10.469;   -6.174;  598.360
388.152;  -13.699;   -8.725;  681.959
388.745;  -11.757;   -7.965;  814.707
389.339;   -9.768;   -5.924;  747.642
389.933;   -9.377;   -5.524;  695.370
390.527;  -10.597;   -7.114;  859.029
391.120;  -16.500;  -10.725;  595.318
391.714;  -14.177;   -8.035;  711.633
392.308;   -9.947;   -3.574;  780.253
392.901;  -14.245;   -7.245;  642.460
393.495;  -15.973;   -9.285;  595.414
394.089;  -13.562;   -5.895;  760.452
394.682;  -14.150;   -4.295;  697.188
395.275;  -15.248;   -9.875;  719.927
395.869;  -16.138;   -8.485;  667.314
396.462;  -14.799;   -7.455;  616.609
397.056;  -10.328;   -5.424;  776.621
397.649;  -15.334;   -6.605;  731.575
398.242;  -13.229;   -8.224;  712.645
398.836;  -12.251;   -7.474;  766.408
399.429;  -13.343;   -7.094;  631.041
400.022;  -16.431;   -9.475;  665.902
400.615;  -14.133;   -7.145;  805.609
401.208;  -12.193;   -7.174;  691.451
401.802;  -14.162;   -5.515;  699.329
402.395;  -15.838;   -9.875;  683.502
402.988;  -16.699;   -8.845;  696.627
403.581;  -13.522;   -8.874;  646.878
404.174;  -11.610;   -5.324;  686.568
404.767;  -14.120;   -9.575;  638.583
405.360;  -16.571;  -10.965;  621.445
405.953;  -10.849;   -8.764;  759.034
406.545;  -11.042;   -7.514;  725.342
407.138;  -14.578;  -10.025;  618.350
407.731;  -14.170;  -10.034;  613.303
408.324;   -9.243;   -9.374;  660.554
408.917;   -9.532;   -6.534;  681.864
409.509;  -12.408;   -8.004;  740.396
410.102;  -14.930;   -9.875;  643.948
410.695;   -7.986;   -8.604;  665.758
411.287;   -9.407;   -6.794;  599.821
411.880;  -10.414;   -9.334;  585.421
412.472;  -13.688;  -10.254;  613.092
413.065;  -11.425;   -6.714;  629.408
413.657;   -8.632;   -7.234;  576.678
414.250;   -8.135;  -10.544;  646.681
414.842;  -10.458;   -9.744;  676.353
415.434;   -8.016;   -6.994;  570.463
416.027;   -4.311;   -5.893;  652.196
416.619;   -6.429;   -7.264;  713.400
417.211;   -7.020;  -10.374;  599.352
417.804;   -3.592;   -7.993;  628.499
418.396;   -6.989;   -7.234;  607.643
418.988;   -5.059;   -9.443;  659.238
419.580;   -8.582;  -10.724;  568.276
420.172;   -5.610;  -10.323;  536.196
420.764;   -0.810;   -8.793;  672.482
421.356;   -2.748;  -11.143;  636.898
421.948;   -3.815;   -8.293;  677.661
422.540;    1.490;   -7.893;  680.027
423.132;    0.610;   -7.082;  600.641
423.724;   -3.173;   -8.653;  561.267
424.316;   -0.840;  -10.213;  621.345
424.908;    2.177;   -9.762;  591.517
425.500;    3.046;   -5.572;  647.978
426.092;    3.757;   -8.422;  648.268
426.683;    2.789;   -9.283;  684.836
427.275;    5.711;   -7.852;  641.471
427.867;    7.675;   -5.272;  668.948
428.458;    7.718;   -7.682;  732.344
429.050;    6.088;  -10.612;  680.749
429.642;    7.675;   -9.882;  743.124
430.233;    8.621;   -6.962;  569.356
430.825;    9.567;   -6.842;  724.809
431.416;    7.252;   -9.672;  698.241
432.008;   10.913;   -6.552;  651.723
432.599;   11.544;   -6.891;  656.073
433.190;    8.636;  -10.912;  637.670
433.782;    7.937;  -11.172;  590.395
434.373;   15.699;   -6.061;  884.765
434.964;   14.188;   -8.251;  602.920
435.556;   11.702;   -9.722;  634.537
436.147;   14.443;   -9.082;  758.490
436.738;   14.526;   -8.041;  701.099
437.329;   19.465;   -7.341;  721.723
437.920;   13.199;   -8.162;  666.688
438.511;   12.666;  -11.802;  564.526
439.103;   18.586;  -10.191;  623.998
439.694;   20.748;   -7.601;  681.583
440.285;   21.547;   -8.541;  764.432
440.876;   19.733;   -9.751;  845.738
441.466;   19.517;   -9.401;  575.162
442.057;   25.033;   -7.760;  665.814
442.648;   23.006;   -9.971;  746.255
443.239;   22.196;  -11.001;  620.477
443.830;   26.642;   -7.990;  704.958
444.421;   28.595;   -7.910;  655.474
445.011;   25.448;   -8.131;  693.619
445.602;   24.158;   -7.111;  743.126
446.193;   25.853;  -10.920;  488.117
446.783;   31.170;   -6.500;  640.397
447.374;   26.025;   -8.671;  692.759
447.964;   27.294;  -10.781;  713.770
448.555;   34.366;   -9.650;  822.742
449.145;   32.094;   -8.660;  662.853
449.736;   32.529;   -8.990;  803.179
450.326;   32.523;   -9.500;  713.626
450.917;   37.668;   -8.680;  675.324
451.507;   36.313;   -7.520;  600.661
452.097;   37.304;   -8.590;  746.267
452.688;   38.250;  -11.340;  742.160
453.278;   37.375;  -10.100;  566.840
453.868;   43.130;   -6.019;  793.550
454.458;   40.779;   -9.440;  651.141
455.048;   40.739;  -10.560;  711.783
455.639;   41.978;  -11.799;  567.096
456.229;   45.814;   -6.899;  710.694
456.819;   47.958;   -7.389;  751.158
457.409;   47.595;  -11.119;  773.993
457.999;   50.281;   -9.289;  737.505
458.589;   50.656;   -6.139;  686.606
459.179;   50.152;   -8.729;  717.658
459.769;   49.202;   -9.789;  627.099
460.358;   53.220;  -10.259;  797.262
460.948;   53.821;   -7.299;  689.503
461.538;   54.652;  -10.289;  660.677
462.128;   52.862;  -11.269;  664.934
462.717;   59.512;   -9.368;  710.326
463.307;   62.208;   -7.908;  705.846
463.897;   57.846;   -9.599;  656.942
464.486;   57.688;   -9.769;  837.128
465.076;   62.352;   -8.048;  733.776
465.666;   65.577;   -9.358;  652.900
466.255;   63.115;   -7.919;  785.651
466.845;   62.009;  -11.689;  666.749
467.434;   65.583;   -7.818;  725.873
468.023;   66.664;   -7.678;  658.357
468.613;   63.446;  -10.939;  713.946
469.202;   68.328;  -10.118;  646.507
469.791;   72.298;   -9.108;  737.811
470.381;   74.166;   -6.058;  742.813
470.970;   73.890;  -10.428;  711.099
471.559;   73.573;  -10.268;  733.291
472.148;   76.467;   -8.448;  675.737
472.738;   79.605;   -6.917;  765.466
473.327;   78.694;  -11.978;  637.529
473.916;   79.185;  -11.888;  737.446
474.505;   82.196;   -9.437;  751.703
475.094;   85.929;   -6.747;  806.570
475.683;   84.951;   -9.367;  797.699
476.272;   86.395;  -12.637;  730.632
476.861;   88.742;  -10.027;  706.754
477.449;   95.526;   -8.716;  728.487
478.038;   89.880;   -9.577;  692.513
478.627;   91.361;   -9.718;  714.852
479.216;   97.015;   -8.947;  769.441
479.805;  100.438;   -6.256;  783.375
480.393;  100.588;   -7.937; 1008.945
480.982;   98.879;   -7.717;  874.501
481.571;  105.280;   -9.266;  858.333
482.159;  105.832;   -7.636;  705.386
482.748;  105.889;   -9.667;  821.385
483.336;  110.047;  -10.376;  858.209
483.925;  110.278;   -7.147;  774.373
484.513;  117.825;   -7.996;  758.962
485.102;  114.206;  -10.027;  810.965
485.690;  122.154;  -10.446; 1011.050
486.278;  125.080;   -8.446;  979.329
486.867;  125.964;   -6.356;  809.662
487.455;  126.542;   -9.136;  898.229
488.043;  127.766;  -10.646;  748.361
488.631;  136.929;   -7.456; 1005.079
489.220;  141.573;   -6.636;  908.626
489.808;  141.115;  -11.036;  741.415
490.396;  148.711;  -10.246;  914.645
490.984;  154.607;   -8.556;  830.161
491.572;  165.163;   -5.886;  940.315
492.160;  169.127;   -9.486;  919.081
492.748;  181.312;  -10.976;  884.341
493.336;  202.763;   -8.776; 1019.693
493.924;  227.830;   -5.465;  958.077
494.512;  255.288;   -9.986; 1066.638
495.100;  289.481;  -10.636; 1103.280
495.687;  345.482;  -10.885; 1206.373
496.275;  405.552;   -8.126; 1150.796
496.863;  472.805;  -10.586; 1281.171
497.451;  568.098;  -11.926; 1386.805
498.038;  699.175;  -10.885; 1556.729
498.626;  805.403;   -6.315; 1741.407
499.214;  954.282;   -7.326; 2016.609
499.801; 1150.276;  -11.906; 2220.633
500.389; 1382.219;  -10.466; 2312.494
500.976; 1669.529;   -5.236; 2744.849
501.564; 2096.640;   -8.936; 3148.565
502.151; 2446.804;  -13.176; 3515.999
502.738; 2845.879;  -10.646; 3971.274
503.326; 3245.198;   -9.525; 4403.796
503.913; 3647.976;  -10.856; 5161.749
504.500; 4023.068;  -11.586; 5986.420
505.088; 4400.010;  -10.336; 6381.201
505.675; 4943.279;   -6.355; 6925.547
506.262; 5610.113;   -9.046; 7619.060
506.849; 6318.491;  -10.416; 8733.969
507.436; 6850.192;  -10.305; 9790.121
508.023; 7413.598;   -5.496; 9985.472
508.610; 7637.150;   -7.856;10434.618
509.197; 8225.717;  -10.097;11198.435
509.784; 9549.900;  -10.886;12391.194
510.371;10729.611;   -9.315;13603.713
510.958;11452.486;   -9.936;14426.586
511.545;12122.261;   -9.326;15243.775
512.132;12965.040;  -10.075;15945.876
512.719;13439.783;   -7.796;16340.369
513.305;14557.694;  -10.606;18011.766
513.892;15288.337;  -11.486;19754.971
514.479;16410.301;   -9.126;20967.805
515.066;17884.695;   -6.026;22299.793
515.652;19531.801;   -8.466;22908.660
516.239;20753.490;  -10.886;23798.875
516.825;21524.678;  -11.496;25567.275
517.412;22488.207;   -5.796;28154.959
517.998;23322.682;  -10.506;28344.111
518.585;23325.848;  -10.076;27134.219
519.171;23869.658;   -8.315;27268.576
519.758;25701.113;   -8.596;28964.129
520.344;27787.102;   -8.466;30664.494
520.930;27474.865;  -11.006;32550.605
521.516;28331.098;  -10.495;35422.895
522.103;30060.820;   -5.526;38280.004
522.689;30622.688;   -8.746;37835.117
523.275;30335.363;  -11.376;37288.613
523.861;32020.529;  -11.156;37281.395
524.447;33831.488;   -8.135;37846.949
525.033;33661.008;   -7.896;38321.949
525.619;33841.590;  -12.476;38579.285
526.205;35173.977;   -9.516;40622.875
526.791;38082.117;   -6.926;42258.836
527.377;37982.512;   -8.346;42966.902
527.963;38825.324;   -8.717;42018.949
528.549;38238.145;  -11.016;42476.828
529.135;37056.516;   -8.536;41854.852
529.721;35963.898;   -9.666;41237.711
530.306;35279.438;  -10.066;41259.445
530.892;34989.301;  -11.356;41506.047
531.478;36072.227;   -6.596;43559.613
532.063;39476.957;   -8.836;47695.563
532.649;40813.621;  -10.047;50808.324
533.235;41263.516;   -9.746;51787.500
533.820;41211.102;   -6.566;52145.035
534.406;42486.047;  -10.817;51133.488
534.991;42546.703;   -9.416;49996.805
535.576;40810.379;   -9.036;48882.852
536.162;41631.203;   -6.156;46942.285
536.747;42931.672;  -11.607;45711.746
537.333;45492.051;  -11.787;48510.180
537.918;48309.691;  -12.437;50439.891
538.503;47932.309;   -7.196;50863.711
539.088;44695.168;  -10.556;50906.922
539.673;44629.633;   -8.767;52621.965
540.259;45255.285;  -10.026;52368.094
540.844;42824.570;   -7.416;50879.109
541.429;44650.426;   -9.467;52077.777
542.014;46747.688;   -9.527;52716.695
542.599;45737.965;   -9.946;52363.281
543.184;42677.703;   -7.927;53187.137
543.769;43645.313;   -9.297;54697.605
544.354;43924.188;  -10.127;53913.914
544.938;42562.621;   -9.267;49680.164
545.523;44139.977;   -6.506;47386.277
546.108;46930.816;   -9.787;49151.949
546.693;48859.590;  -11.587;51384.637
547.278;49336.191;  -10.986;51853.254
547.862;46661.813;   -8.206;51173.750
548.447;42289.270;  -10.067;51691.395
549.031;41242.777;   -9.637;52456.703
549.616;45539.574;   -9.926;52714.516
550.201;45482.887;   -6.347;52414.598
550.785;46807.645;   -7.917;52355.059
551.370;45992.098;  -10.867;54589.453
551.954;45424.098;   -9.047;58267.348
552.538;46283.055;   -7.827;59062.176
553.123;44853.957;  -10.287;58115.285
553.707;42635.777;  -12.178;56556.285
554.291;44138.539;   -8.717;56201.668
554.876;47427.922;   -7.457;55335.762
555.460;47662.988;  -10.387;54155.703
556.044;47552.832;   -9.618;53721.484
556.628;45255.941;  -11.567;53731.016
557.212;44006.996;   -8.097;54312.531
557.796;43065.637;  -11.077;53797.773
558.380;43413.801;  -11.108;56145.984
558.964;43546.707;   -9.057;57277.930
559.548;44442.508;   -6.977;56459.641
560.132;42453.664;  -11.457;54434.543
560.716;40797.566;  -11.378;54800.617
561.300;41954.414;   -9.577;57606.945
561.884;43046.031;   -7.127;58972.445
562.467;41017.016;   -7.118;57327.570
563.051;40330.859;  -13.358;54962.434
563.635;42063.992;  -10.178;52594.473
564.219;42800.230;   -7.837;50610.410
564.802;43440.438;  -11.398;49551.180
565.386;42827.754;  -12.788;48370.953
565.969;42143.188;   -9.077;48178.871
566.553;40845.555;   -6.207;49957.305
567.136;41790.883;   -8.568;50369.594
567.720;38873.281;  -11.868;49492.004
568.303;36858.453;   -8.268;50616.352
568.887;36807.328;   -8.698;50727.148
569.470;37408.773;   -6.808;51698.379
570.053;36707.129;  -13.188;52122.078
570.637;34146.449;  -12.037;52536.438
571.220;33799.488;   -8.577;51186.098
571.803;34928.723;   -8.498;51032.762
572.386;37112.945;  -10.498;49609.887
572.969;39514.156;   -9.388;48285.926
573.552;37956.508;   -8.338;47624.285
574.135;36220.555;   -8.518;45498.641
574.718;33797.273;  -13.628;41970.434
575.301;33274.961;  -10.893;41447.137
575.884;32752.650;   -8.158;40923.836
576.467;33897.145;  -10.328;45267.723
577.050;35173.992;  -13.058;48175.543
577.633;36074.449;   -9.458;47729.328
578.216;35354.723;   -8.928;47579.793
578.799;34493.656;   -9.358;47820.996
579.381;33510.414;  -11.388;48115.551
579.964;31293.715;  -11.718;47333.766
580.547;33140.160;   -8.588;46668.969
581.129;33852.707;   -8.859;44466.141
581.712;34704.270;  -10.729;44164.922
582.294;35116.531;  -11.118;46477.855
582.877;35204.488;   -5.218;48244.254
583.459;33575.484;   -8.679;47437.895
584.042;31356.348;  -10.709;46943.219
584.624;30788.744;  -11.669;46792.227
585.206;30134.766;   -8.218;46557.250
585.789;29542.262;  -10.569;45793.773
586.371;29828.232;  -11.859;43836.391
586.953;28127.438;  -10.719;42972.492
587.536;28010.418;   -7.198;42487.211
588.118;30938.758;   -8.720;42086.414
588.700;30763.816;  -10.439;43389.930
589.282;31607.457;   -9.198;43646.039
589.864;33318.469;   -9.199;43438.109
590.446;34649.773;  -11.319;43151.926
591.028;34576.930;  -11.159;42781.867
591.610;33244.090;  -11.779;42839.098
592.192;30424.773;   -7.668;42820.402
592.774;29137.170;  -11.949;40724.277
593.356;28191.383;  -12.129;39874.789
593.937;27193.820;  -10.669;39980.648
594.519;29387.361;   -6.509;42069.633
595.101;31395.006;  -10.849;42976.031
595.683;31389.816;  -11.679;44084.441
596.264;32205.725;   -9.049;43478.797
596.846;32255.426;   -8.849;43803.672
597.427;32183.680;   -9.570;42986.934
598.009;33316.164;  -12.620;42832.219
598.591;33506.012;  -10.039;42580.086
599.172;33143.434;  -10.369;43061.805
599.753;33269.582;   -9.140;41691.469
600.335;34416.824;  -11.430;40692.520
600.916;32606.488;   -9.939;39982.422
601.498;30628.398;   -8.479;40318.617
602.079;29191.830;  -10.920;40670.609
602.660;28834.594;  -11.480;41450.898
603.241;30681.000;  -11.699;41137.738
603.823;29516.434;   -9.579;38868.797
604.404;28493.852;  -10.620;38182.785
604.985;30156.342;  -10.450;38078.047
605.566;30412.623;   -9.129;38056.633
606.147;30379.859;   -7.510;37020.418
606.728;31751.432;  -10.660;37883.359
607.309;30408.537;  -11.740;38748.273
607.890;30390.592;   -9.759;38850.230
608.471;29981.627;   -8.250;37457.918
609.051;29191.037;   -9.240;36066.457
609.632;27842.158;  -12.120;35991.074
610.213;27947.734;   -9.110;37402.641
610.794;28851.740;   -8.030;38383.363
611.374;28874.135;   -8.110;40562.387
611.955;29813.488;  -13.560;38533.727
612.536;31114.994;  -11.400;36951.789
613.116;30595.262;   -8.070;37197.891
613.697;30895.271;  -10.830;38411.125
614.277;29116.512;  -11.641;38673.938
614.858;29919.820;  -13.310;37075.863
615.438;29667.551;   -7.460;35092.906
616.019;27654.680;   -7.601;33666.301
616.599;27784.564;  -12.020;34189.023
617.179;29302.957;  -11.780;36952.047
617.760;30505.770;   -8.570;39582.574
618.340;31199.830;  -11.471;38943.977
618.920;31995.629;  -11.170;37594.156
619.500;32093.135;  -11.071;37866.938
620.080;31172.602;   -7.750;37869.043
620.660;32165.504;  -12.711;36868.617
621.241;33882.801;  -10.211;36352.309
621.821;34456.863;  -10.961;35459.520
622.401;33213.992;   -7.720;35207.414
622.980;32037.393;   -8.981;35980.422
623.560;30668.664;   -9.331;37351.328
624.140;29342.988;   -9.850;34388.582
624.720;24698.340;   -7.451;32368.764
625.300;21401.338;   -9.070;32638.629
625.880;24759.988;  -12.601;34599.035
626.459;28879.207;  -11.751;36831.738
627.039;31635.490;   -9.281;38299.098
627.619;31474.262;   -8.801;38289.574
628.198;29999.473;  -12.071;37220.695
628.778;28981.939;   -9.461;37632.563
629.357;29527.193;   -8.491;38003.012
629.937;29758.305;   -9.721;38402.039
630.516;29319.211;   -9.951;37868.801
631.096;29110.621;  -11.731;35760.410
631.675;31122.416;   -8.572;35225.219
632.254;36248.344;  -11.282;35130.289
632.834;36013.438;  -13.322;35794.570
633.413;34460.020;  -10.301;35788.922
633.992;32048.982;   -8.582;34532.863
634.571;32316.102;   -8.352;33590.113
635.151;34776.898;  -11.912;34943.863
635.730;33554.031;  -10.511;35352.523
636.309;30517.313;   -7.731;35366.605
636.888;27948.203;   -9.952;36165.637
637.467;28227.811;  -11.672;37515.902
638.046;29521.059;   -8.901;39288.695
638.625;32283.281;   -7.912;38279.699
639.204;32243.861;  -10.022;37741.598
639.782;31317.787;  -12.252;38364.551
640.361;27622.648;  -10.041;36740.621
640.940;25041.592;  -11.161;34950.082
641.519;25813.699;   -9.701;34137.398
642.097;28588.148;  -11.271;35654.258
642.676;31192.957;   -8.651;35637.957
643.255;32527.270;   -8.711;36567.074
643.833;31985.854;   -9.581;37809.434
644.412;32062.916;  -13.711;37337.293
644.990;31009.803;  -11.811;37018.531
645.569;30696.869;   -9.411;36518.469
646.147;30374.365;  -10.291;36186.430
646.726;30626.721;  -12.401;36267.688
647.304;31520.031;  -10.411;36647.625
647.882;32685.248;   -9.651;39286.742
648.461;34312.805;   -9.631;39157.703
649.039;32871.195;  -11.881;35412.883
649.617;31809.113;   -9.661;34744.918
650.195;30832.373;   -9.301;35403.098
650.773;29548.379;  -10.511;35053.797
651.352;27361.596;  -11.521;33756.816
651.930;25085.723;  -12.211;31868.773
652.508;23579.275;   -9.171;33121.551
653.086;27364.047;   -9.371;33564.793
653.663;30495.445;  -13.161;34054.668
654.241;29099.641;  -13.031;35693.309
654.819;30289.537;   -9.371;36422.906
655.397;30130.779;  -10.511;38213.484
655.975;29694.227;  -10.371;39507.625
656.553;29395.996;  -10.051;39498.223
657.130;28023.592;  -10.061;40395.480
657.708;27281.701;   -9.561;39242.020
658.286;27408.559;  -11.511;38920.020
658.863;28582.707;  -10.261;40202.898
659.441;31944.852;   -7.531;39677.938
660.018;32080.525;   -9.501;40413.355
660.596;30637.090;  -13.301;39931.414
661.173;32036.979;  -11.211;39604.531
661.750;32504.578;   -9.951;39700.070
662.328;31375.467;   -9.390;39292.809
662.905;30488.598;  -11.330;38235.648
663.482;26463.197;   -9.050;36212.305
664.060;24592.084;   -8.240;35944.945
664.637;27414.928;  -10.050;35170.785
665.214;28689.057;  -11.760;34197.523
665.791;30232.863;  -10.530;34549.520
666.368;29538.955;   -9.690;35118.578
666.945;29976.783;   -9.320;36019.418
667.522;31481.441;  -11.860;36048.438
668.099;31280.879;  -10.770;36243.914
668.676;29964.645;   -6.260;35958.875
669.253;28651.582;   -7.000;37384.730
669.830;28799.623;  -10.190;36779.629
670.407;28772.611;   -9.550;35231.289
670.984;28796.393;   -9.260;35544.270
671.560;29778.754;   -9.280;35466.867
672.137;29125.717;  -11.810;34280.863
672.714;29971.836;  -11.490;34632.863
673.290;31256.178;   -7.740;35135.422
673.867;31282.271;  -10.660;36114.480
674.443;31051.217;  -12.230;36152.859
675.020;29049.975;  -10.450;35327.238
675.596;29856.213;   -9.260;35795.176
676.173;30549.617;  -10.780;35430.355
676.749;30286.877;  -13.690;33549.516
677.326;30003.504;  -11.980;32210.012
677.902;29830.580;   -8.630;32068.871
678.478;29259.008;  -10.730;32583.891
679.054;28253.381;  -10.520;32088.928
679.631;28620.383;  -11.920;30978.848
680.207;29988.582;   -7.490;33160.887
680.783;31402.674;   -9.860;35570.363
681.359;30577.229;  -13.380;36125.184
681.935;30396.713;  -12.480;35240.922
682.511;30443.152;   -7.900;34429.961
683.087;30912.379;   -7.710;34463.680
683.663;30090.166;  -11.480;34648.898
684.239;28616.379;  -14.090;34546.457
684.815;27885.893;   -7.560;35586.375
685.390;27941.076;   -9.910;35821.895
685.966;28546.063;  -11.159;35085.871
686.542;31006.258;  -11.169;34198.230
687.118;33440.660;   -5.959;32847.707
687.693;33981.246;  -10.329;32794.027
688.269;33572.109;  -12.059;33072.367
688.844;31801.820;  -10.909;33141.664
689.420;29910.596;   -8.019;33965.742
689.995;28220.076;   -8.399;34655.523
690.571;26777.777;  -10.949;33576.742
691.146;26677.623;   -9.619;32657.219
691.722;26634.203;   -8.999;32526.979
692.297;26120.891;  -11.589;33014.617
692.872;27307.367;  -11.739;34012.254
693.448;27200.514;  -11.059;34237.434
694.023;26221.697;  -10.139;34142.672
694.598;28101.053;   -9.029;34132.031
695.173;28945.545;  -13.319;34205.250
695.748;27912.523;  -10.169;32882.488
696.323;27731.031;   -8.339;32864.906
696.898;27941.389;   -8.169;33170.004
697.473;28238.828;  -12.309;32432.984
698.048;27586.117;  -10.989;31649.303
698.623;27237.811;   -9.329;30778.141
699.198;28552.068;   -9.849;31140.119
699.773;29995.971;  -12.329;31764.299
700.348;28881.645;  -10.389;31780.816
700.922;28825.746;   -9.269;32046.375
701.497;29891.877;   -9.329;32603.574
702.072;30206.922;  -10.789;34799.871
702.646;28768.623;  -10.839;35793.172
703.221;26612.363;   -9.099;35201.590
703.795;28347.094;  -10.939;34764.527
704.370;28814.342;  -12.859;34307.367
704.944;29035.891;  -11.559;33509.887
705.519;29589.186;   -7.939;31388.584
706.093;30752.803;  -10.499;31340.104
706.668;31292.725;  -11.289;32630.281
707.242;30162.527;  -11.509;32728.779
707.816;28940.121;   -9.639;32947.238
708.390;27510.541;  -11.429;33277.855
708.965;28018.826;  -11.869;33834.336
709.539;28090.994;  -11.689;33709.273
710.113;28072.869;  -10.478;33044.313
710.687;27539.910;  -10.228;31953.992
711.261;26071.992;  -13.698;30505.949
711.835;25842.400;  -13.378;30262.369
712.409;26133.223;   -9.698;31254.447
712.983;28092.133;  -11.898;32754.986
713.557;29399.414;  -15.138;34018.824
714.131;29327.326;  -14.098;34579.625
714.704;28313.340;   -9.958;33890.262
715.278;25723.508;  -10.028;33531.102
715.852;24516.316;  -11.148;33601.660
716.425;25664.109;   -9.068;33515.117
716.999;26925.896;  -10.038;33185.555
717.573;27830.395;   -9.798;33905.996
718.146;28878.227;  -12.378;35199.293
718.720;28931.533;  -11.918;35060.551
719.293;28930.002;   -8.088;34973.230
719.867;31988.195;  -10.888;36394.449
720.440;31782.152;  -11.938;36663.008
721.013;29957.025;  -12.818;35102.426
721.587;28231.324;  -10.298;33985.266
722.160;26923.779;  -10.048;33524.965
722.733;25967.730;  -12.108;32987.043
723.306;26236.258;  -10.818;33066.301
723.880;28282.469;   -8.908;33399.500
724.453;30601.879;   -9.878;33468.297
725.026;29983.578;  -11.188;33816.637
725.599;27141.322;  -11.678;32797.996
726.172;26980.049;   -9.618;33187.434
726.745;28012.309;   -8.258;35136.613
727.318;29262.332;  -12.978;35751.730
727.891;29999.256;  -12.148;35890.430
728.463;29539.758;   -8.968;34822.090
729.036;28152.621;  -10.188;32895.086
729.609;28610.447;  -11.788;31823.225
730.182;25950.527;  -11.788;31445.283
730.754;23607.045;  -10.268;32373.223
731.327;24009.619;   -9.998;33676.820
731.900;24451.971;  -12.228;33417.000
732.472;25033.102;  -13.848;31978.498
733.045;26456.203;   -8.698;30368.777
733.617;26551.926;  -10.607;30574.215
734.190;26945.080;  -11.507;31280.975
734.762;24767.428;  -13.647;31674.412
735.334;22835.410;   -9.767;31247.291
735.907;23122.066;   -9.897;29876.211
736.479;23468.434;  -11.637;29808.488
737.051;23161.246;   -9.567;30233.547
737.623;23652.891;   -8.187;31469.086
738.195;23946.695;  -11.187;31784.225
738.768;25985.357;  -12.337;32120.523
739.340;26970.660;  -12.227;32094.342
739.912;26211.363;  -11.057;31312.680
740.484;24812.006;  -10.207;31946.238
741.056;23059.521;  -10.047;32984.059
741.628;24008.770;  -13.627;33897.715
742.199;26116.967;   -7.177;33213.016
742.771;25026.348;  -10.797;31369.113
743.343;23100.711;  -11.997;31865.473
743.915;22114.941;  -12.867;32388.631
744.487;22015.844;   -7.617;31079.568
745.058;22035.971;   -9.557;30570.107
745.630;22656.705;   -9.877;29970.127
746.201;24027.664;  -14.177;29186.766
746.773;24898.891;   -9.237;28805.723
747.344;24669.520;   -9.847;29591.223
747.916;22684.586;  -11.657;31412.201
748.487;22619.242;  -10.587;32194.898
749.059;23992.854;   -8.707;32533.719
749.630;24811.344;  -10.537;32158.518
750.201;23877.418;  -11.687;30855.395
750.773;22135.354;  -11.647;28622.555
751.344;21787.768;   -7.147;28405.732
751.915;22551.758;   -9.757;28461.551
752.486;22738.770;  -12.427;27842.850
753.057;20917.875;  -12.227;27845.008
753.628;19725.566;  -10.417;27728.107
754.199;20552.809;  -11.767;27381.086
754.770;21595.277;  -11.187;25882.203
755.341;21936.057;  -10.507;25886.184
755.912;22159.512;   -9.387;26050.861
756.483;21673.488;  -10.647;26798.779
757.054;19846.805;  -11.837;27048.238
757.625;18376.055;  -12.716;26294.838
758.195;18177.324;   -9.666;26142.076
758.766;17862.215;   -8.656;26392.234
759.337;18390.617;  -12.856;26334.594
759.907;19793.756;  -13.366;27579.652
760.478;20757.793;   -8.576;28352.770
761.048;20314.932;  -10.526;27325.088
761.619;19274.307;  -11.116;26460.428
762.189;19267.021;  -12.136;26029.826
762.760;20260.158;   -9.456;26430.145
763.330;21469.682;   -7.136;26670.902
763.900;21111.854;  -11.786;26603.021
764.471;18772.465;  -11.546;25542.740
765.041;17369.760;   -8.096;24358.459
765.611;17089.637;   -8.876;23991.297
766.181;17296.848;  -12.196;24470.236
766.751;18481.926;  -11.636;24845.975
767.321;18386.223;  -10.156;24533.633
767.891;16351.274;  -11.766;24916.492
768.461;15706.616;  -14.936;24776.771
769.031;16187.904;  -12.356;24757.988
769.601;17931.297;   -7.526;24181.088
770.171;18057.225;  -10.766;23670.387
770.741;17046.018;  -13.176;22960.045
771.311;16969.723;  -10.616;22917.523
771.880;17631.852;   -9.576;23562.941
772.450;17674.496;  -10.336;24216.500
773.020;17623.100;  -13.516;24140.398
773.589;16754.301;  -13.466;24414.857
774.159;16027.075;   -8.686;23858.717
774.729;15636.324;   -9.476;22942.135
775.298;15301.339;  -13.666;22324.033
775.867;14859.734;  -11.716;21140.313
776.437;15065.825;   -9.906;20838.092
777.006;14858.002;  -12.166;20599.510
777.576;14414.385;  -12.356;20508.809
778.145;14342.859;  -11.646;20732.947
778.714;14474.994;   -8.226;21062.465
779.283;14030.551;   -9.556;20949.664
779.853;13470.088;  -14.116;20508.623
780.422;13828.861;  -11.506;20649.082
780.991;13425.589;   -9.556;21527.520
781.560;12100.059;   -9.095;22632.658
782.129;11848.806;  -12.135;23048.277
782.698;11862.481;  -10.865;23438.555
783.267;11516.305;   -9.335;23267.734
783.836;11443.636;  -11.045;22415.133
784.404;12447.219;  -13.865;20443.152
784.973;13159.023;  -13.095;19699.150
785.542;13241.609;  -11.575;19763.828
786.111;13053.236;   -9.705;20341.408
786.679;12574.101;  -12.105;20207.967
787.248;12311.457;  -12.455;19516.465
787.817;12133.563;  -11.535;18900.363
788.385;11785.354;   -9.765;17879.121
788.954;11227.978;  -14.005;17658.301
789.522;10555.999;  -11.955;17788.879
790.090;10908.340;  -10.135;18118.277
790.659;11546.411;  -10.975;18338.736
791.227;11213.408;  -13.375;18508.615
791.795;11564.268;  -12.375;17898.254
792.364;11852.919;  -10.725;17295.133
792.932;12216.634;   -9.715;16822.051
793.500;12564.672;  -12.675;17040.148
794.068;12802.664;  -13.495;17179.787
794.636;12975.854;  -10.885;16664.246
795.204;12287.019;  -11.045;16524.545
795.772;12232.390;  -13.175;17274.564
796.340;11728.474;  -12.445;17891.002
796.908;11452.466;   -9.735;17648.561
797.476;11324.293;   -9.815;17064.080
798.044;10953.238;  -13.985;16672.777
798.612;10228.436;  -13.115;17023.996
799.180; 9827.536;  -10.185;16561.615
799.747; 9655.629;   -9.055;15962.773
800.315; 9349.508;  -12.385;15296.992
800.883; 9169.385;  -15.035;14801.771
801.450; 9394.827;  -10.365;14534.430
802.018; 9513.073;   -9.855;14173.248
802.585; 9522.730;  -11.905;14029.547
803.153; 9525.195;  -11.585;13836.846
803.720; 9328.259;   -9.095;13567.324
804.287; 8786.947;   -9.135;13360.622
804.855; 8248.652;  -11.604;13681.981
805.422; 8099.435;  -11.794;13536.560
805.989; 8174.540;  -10.734;13355.958
806.556; 8375.541;  -10.444;13747.896
807.124; 8641.140;  -12.764;13987.376
807.691; 8611.154;  -12.964;14038.674
808.258; 8434.695;  -11.134;14120.152
808.825; 8095.805;   -9.854;13860.111
809.392; 8206.097;  -10.504;13268.790
809.959; 7751.247;  -13.054;12680.389
810.526; 7230.832;   -8.294;12427.308
811.093; 7192.874;   -8.394;12030.105
811.659; 7839.991;  -12.304;11653.664
812.226; 8474.343;  -13.944;11637.183
812.793; 8255.524;  -10.484;11611.521
813.360; 7590.802;  -10.144;11885.181
813.926; 7252.125;  -11.684;12770.539
814.493; 7050.753;  -13.644;12677.638
815.060; 6666.447;   -9.724;11974.336
815.626; 6581.662;   -9.854;11594.715
816.193; 6913.462;  -13.254;11579.474
816.759; 6953.824;  -13.204;11666.972
817.325; 6972.377;   -9.434;11325.530
817.892; 7317.111;  -10.134;11105.369
818.458; 7760.859;  -13.474;10843.928
819.024; 7424.548;  -11.854;10714.406
819.591; 7123.604;  -10.244;10469.165
820.157; 6939.981;  -10.704;10235.523
820.723; 6428.007;  -12.324;10847.563
821.289; 6122.977;   -9.444;11040.980
821.855; 6073.831;   -8.374;10357.100
822.421; 6067.200;  -10.234; 9978.918
822.987; 6025.312;  -13.294; 9754.177
823.553; 5606.160;  -10.884;10065.755
824.119; 5358.199;   -8.884;10036.294
824.685; 5487.578;   -6.784;10029.192
825.251; 5639.943;  -12.004;10199.230
825.816; 5598.970;  -11.474; 9820.189
826.382; 5300.721;   -9.174; 9297.248
826.948; 5425.420;   -9.214; 9381.347
827.513; 5866.755;  -10.774; 9450.726
828.079; 5786.299;  -11.924; 9472.444
828.645; 5176.268;  -10.543; 9292.643
829.210; 4949.340;  -10.533; 9065.341
829.776; 4903.522;  -10.753; 9132.620
830.341; 4784.928;  -10.173; 9092.878
830.906; 4936.281;  -10.743; 9078.557
831.472; 5295.305;  -11.113; 8534.535
832.037; 5122.049;  -10.603; 8677.874
832.602; 4600.909;  -13.323; 8628.692
833.167; 4312.578;  -10.823; 8879.031
833.733; 4238.603;  -10.113; 9189.790
834.298; 4367.876;  -13.583; 9052.608
834.863; 4521.781;  -12.703; 8895.087
835.428; 4552.784;  -10.523; 8824.266
835.993; 4408.668;   -6.963; 8845.385
836.558; 4238.605;  -10.763; 8888.563
837.123; 4306.998;   -9.903; 8966.582
837.688; 4562.702;   -9.913; 8617.860
838.253; 4838.036;  -10.283; 8590.699
838.817; 5011.793;  -12.963; 8443.797
839.382; 4924.925;  -14.243; 8799.356
839.947; 4623.235;  -10.733; 8810.595
840.511; 4319.946;   -9.383; 8796.394
841.076; 3941.723;  -12.563; 8347.231
841.641; 4001.888;  -12.953; 8224.330
842.205; 4119.122;   -7.043; 8223.349
842.770; 4130.426;   -8.163; 8622.107
843.334; 4233.798;  -12.503; 8410.386
843.898; 4194.929;  -11.693; 8337.465
844.463; 4195.463;  -10.203; 8506.283
845.027; 3999.085;   -9.533; 8280.962
845.591; 3820.382;  -13.443; 8231.141
846.156; 3827.490;  -13.143; 7969.179
846.720; 3750.875;   -9.433; 7768.278
847.284; 3655.972;  -11.033; 7630.957
847.848; 3521.616;  -10.403; 7472.395
848.412; 3422.182;  -11.553; 7437.394
848.976; 3448.196;   -8.393; 7674.592
849.540; 3360.181;   -8.713; 7836.011
850.104; 3395.083;  -12.463; 7913.669
850.668; 3752.464;  -12.973; 7694.508
851.232; 3932.767;  -10.793; 7756.887
851.796; 3807.937;  -10.662; 7926.545
852.359; 3485.163;  -13.082; 7827.844
852.923; 3285.207;  -12.192; 7641.163
853.487; 3144.313;  -11.912; 7342.501
854.050; 3128.096;  -10.892; 7042.820
854.614; 3264.497;  -13.992; 7151.338
855.177; 3366.643;  -11.732; 7105.077
855.741; 3405.785;   -8.962; 6989.675
856.304; 3304.885;   -9.442; 6596.634
856.868; 3281.837;  -14.192; 6356.272
857.431; 3416.853;  -12.702; 6468.571
857.995; 3564.572;   -9.942; 6373.210
858.558; 3609.398;   -9.112; 6324.448
859.121; 3347.033;  -12.932; 6408.327
859.684; 3150.671;  -13.442; 6347.886
860.247; 3237.406;  -10.632; 6321.264
860.810; 3277.049;  -11.272; 6301.903
861.374; 3030.562;   -9.832; 6607.881
861.937; 2756.127;  -11.762; 6408.200
862.500; 2747.438;   -9.722; 6572.639
863.062; 2886.507;  -10.512; 6387.297
863.625; 3022.010;  -11.232; 6190.836
864.188; 3185.002;  -14.112; 5807.254
864.751; 3283.609;  -11.302; 5682.413
865.314; 3214.163;  -10.112; 5547.492
865.876; 2989.547;  -12.182; 5500.150
866.439; 2942.862;  -10.722; 5415.909
867.002; 2902.545;   -9.252; 5501.567
867.564; 2723.952;   -9.572; 5413.946
868.127; 2509.841;  -13.142; 5160.325
868.689; 2384.972;  -12.902; 5133.183
869.252; 2279.449;   -9.732; 5252.382
869.814; 2172.534;   -9.432; 5297.141
870.377; 2170.456;  -11.552; 5390.919
870.939; 2229.314;   -9.052; 5599.898
871.501; 2303.763;  -10.982; 5248.336
872.063; 2323.109;  -12.292; 4854.235
872.626; 2260.452;  -14.912; 4817.074
873.188; 2246.872;  -13.112; 4987.732
873.750; 2221.458;  -13.442; 4868.651
874.312; 2139.859;   -9.402; 4779.330
874.874; 2061.772;  -11.062; 4866.348
875.436; 1981.244;  -13.931; 4718.887
875.998; 1976.610;   -9.561; 4660.005
876.560; 2010.624;  -11.321; 4462.964
877.122; 1952.374;  -12.221; 4145.042
877.683; 1840.635;  -12.191; 4056.481
878.245; 1754.928;  -12.101; 3950.740
878.807; 1792.976;   -8.971; 4058.958
879.369; 1819.429;  -12.071; 3954.677
879.930; 1725.265;  -14.621; 3941.495
880.492; 1656.677;  -10.311; 4067.014
881.053; 1629.897;  -10.901; 3859.633
881.615; 1536.195;  -14.411; 3776.071
882.176; 1431.307;  -13.761; 3734.750
882.738; 1374.109;   -9.181; 3678.489
883.299; 1349.756;  -11.791; 3405.407
883.860; 1332.042;  -13.121; 3351.106
884.422; 1320.902;  -11.211; 3394.044
884.983; 1281.382;  -10.091; 3166.443
885.544; 1211.415;   -8.461; 3189.802
886.105; 1135.598;  -12.361; 3160.360
886.666; 1066.856;  -14.141; 3093.059
887.227; 1004.227;  -11.361; 2941.957
887.788;  942.844;  -11.401; 2974.836
888.349;  876.324;  -13.791; 2721.214
888.910;  865.892;  -13.191; 2696.493
889.471;  871.750;   -9.881; 2560.172
890.032;  853.945;   -9.881; 2558.190
890.593;  824.125;  -10.371; 2567.669
891.153;  795.305;  -13.301; 2460.307
891.714;  749.317;  -11.431; 2372.046
892.275;  714.908;  -11.291; 2309.505
892.835;  681.541;  -11.471; 2382.543
893.396;  630.498;  -11.541; 2295.502
893.956;  570.684;  -11.181; 2162.420
894.517;  529.497;  -11.741; 2125.439
895.077;  520.289;  -11.671; 2086.978
895.638;  523.686;  -11.311; 2126.316
896.198;  497.832;   -9.831; 1838.275
896.758;  454.474;   -8.421; 1892.813
897.319;  423.226;  -12.351; 1792.232
897.879;  406.817;  -13.511; 1762.751
898.439;  382.224;  -12.001; 1661.149
898.999;  356.485;  -10.180; 1781.468
899.559;  344.085;  -12.030; 1703.347
900.119;  339.287;  -15.710; 1537.525
900.679;  335.717;   -8.900; 1638.384
901.239;  321.581;   -8.340; 1527.902
901.799;  310.586;  -13.910; 1456.441
902.359;  304.021;  -13.460; 1357.140
902.919;  296.695;  -11.490; 1331.118
903.479;  284.212;  -12.110; 1317.257
904.038;  263.443;  -11.720; 1262.595
904.598;  247.948;  -13.610; 1152.034
905.158;  244.792;  -11.040; 1240.893
905.717;  238.263;  -10.900; 1233.691
906.277;  227.816;  -15.080; 1217.330
906.836;  218.762;  -13.380; 1222.408
907.396;  209.260;  -10.780; 1193.047
907.955;  201.487;   -8.500; 1182.526
908.515;  195.662;  -12.760; 1099.364
909.074;  189.585;  -11.900; 1092.863
909.633;  183.600;   -8.950; 1069.121
910.192;  179.333;   -8.770; 1196.460
910.752;  173.781;  -12.390; 1029.960
911.311;  169.229;  -13.680; 1009.780
911.870;  166.287;  -12.370;  971.460
912.429;  167.682;  -10.900; 1094.080
912.988;  166.351;  -11.690; 1081.060
913.547;  163.213;  -13.240;  940.380
914.106;  157.189;  -11.990;  999.420
914.665;  154.219;   -9.990;  984.020
915.224;  153.579;  -12.880; 1035.760
915.782;  153.311;  -12.350;  922.560
916.341;  152.645;   -9.110; 1049.840
916.900;  148.563;   -9.270;  925.260
917.458;  146.979;  -13.240;  884.220
918.017;  146.410;  -13.550;  942.600
918.576;  146.087;  -12.320;  904.440
919.134;  144.001;  -11.490;  837.980
919.693;  142.388;  -13.670;  893.060
920.251;  141.462;  -15.470;  876.500
920.809;  140.724;  -11.290;  839.580
921.368;  139.942;  -10.210;  885.360
921.926;  138.267;  -12.140;  842.940
922.484;  137.626;  -13.080;  903.360
923.042;  136.848;  -11.720;  880.340
923.601;  140.235;   -7.480;  998.680
924.159;  138.439;  -11.570;  935.560
924.717;  134.886;  -13.840;  841.080
925.275;  133.949;  -10.640;  903.240
925.833;  134.099;  -11.540;  779.320
926.391;  134.288;  -12.960;  938.380
926.949;  133.793;  -14.130;  857.680
927.506;  134.221;  -11.750;  903.500
928.064;  134.083;  -10.250;  877.580
928.622;  133.341;  -13.030;  880.100
929.180;  132.279;  -13.400;  814.180
929.737;  134.003;  -10.700;  808.540
930.295;  137.814;  -10.070;  928.480
930.853;  139.307;  -11.960;  849.100
931.410;  139.881;  -13.120;  821.120
931.968;  138.979;  -10.770;  940.660
932.525;  139.700;  -10.680;  909.380
933.082;  139.050;  -13.130;  811.440
933.640;  140.939;  -13.210;  925.900
934.197;  139.448;  -11.060;  886.360
934.754;  140.845;   -9.580;  897.780
935.312;  143.281;  -14.000;  863.340
935.869;  148.347;  -10.710; 1012.980
936.426;  147.544;   -9.860;  872.800
936.983;  149.571;   -9.710;  889.020
937.540;  149.483;  -13.990;  838.280
938.097;  148.635;  -14.040;  940.120
938.654;  149.283;  -10.310;  898.860
939.211;  151.457;  -10.560;  952.480
939.768;  154.697;  -13.900;  915.420
940.324;  158.346;  -14.760;  904.200
940.881;  159.803;  -10.370;  878.500
941.438;  160.867;   -8.260; 1021.200
941.995;  156.897;  -12.540;  992.560
942.551;  153.742;  -14.670;  875.620
943.108;  153.563;  -10.450;  937.920
943.664;  156.043;  -10.750;  869.340
944.221;  159.654;  -11.550; 1088.140
944.777;  156.882;  -14.770;  869.680
945.334;  157.066;  -12.820;  884.840
945.890;  159.415;  -10.130;  946.480
946.446;  159.145;  -13.470;  947.020
947.003;  161.244;  -12.120;  964.940
947.559;  164.209;   -9.980; 1063.040
948.115;  164.542;   -9.080; 1026.540
948.671;  163.236;  -10.830;  967.300
949.227;  159.613;  -12.440;  859.560
949.783;  157.085;  -12.910;  858.900
950.339;  159.806;  -10.270;  991.000
950.895;  159.435;  -13.630; 1023.840
951.451;  158.651;  -15.100;  925.280
952.007;  157.367;  -11.330;  998.540
952.563;  157.794;  -10.580;  937.780
953.118;  155.345;  -13.440;  904.940
953.674;  155.799;  -12.710;  935.780
954.230;  154.744;  -10.350;  949.640
954.785;  153.434;   -9.190;  936.640
955.341;  151.239;  -11.200;  998.160
955.897;  149.753;  -16.560;  834.660
956.452;  151.993;  -12.570;  953.840
957.008;  151.016;   -7.970; 1083.640
957.563;  149.406;  -11.940; 1009.540
958.118;  143.446;  -13.450;  877.700
958.674;  143.582;  -12.030;  946.780
959.229;  144.815;   -9.410; 1013.980
959.784;  144.083;  -12.000;  832.400
960.339;  142.576;  -14.780; 1001.280
960.894;  139.541;   -9.860;  963.760
961.449;  135.335;   -9.970;  859.960
962.004;  135.408;  -10.900; 1212.840
962.559;  129.945;  -13.150;  860.140
963.114;  126.347;  -13.740;  742.480
963.669;  126.543;   -9.820;  915.500
964.224;  124.354;  -13.890;  874.340
964.779;  124.162;  -12.600;  828.420
965.334;  124.791;  -10.950; 1017.860
965.888;  124.301;  -11.170;  875.360
966.443;  128.379;  -12.540;  972.380
966.998;  127.722;  -15.780;  819.460
967.552;  127.385;   -9.760;  908.380
968.107;  123.024;   -9.060;  868.300
968.661;  124.704;  -11.950;  922.440
969.216;  125.394;  -12.800;  856.280
969.770;  124.850;  -11.210;  917.200
970.324;  124.790;  -11.610;  923.140
970.879;  121.077;  -11.370;  947.180
971.433;  117.296;  -12.540;  952.720
971.987;  112.686;  -11.320;  895.340
972.541;  109.963;  -10.720;  917.100
973.095;  108.375;   -9.680; 1009.460
973.649;  106.937;  -11.440;  809.480
974.203;  105.829;  -11.210;  829.040
974.757;  105.491;  -10.240;  855.220
975.311;  106.099;  -13.720;  872.600
975.865;  104.432;  -13.770;  881.820
976.419;  102.304;  -11.690;  857.400
976.973;  101.028;   -9.510;  849.620
977.526;   99.235;  -12.620;  949.920
978.080;   90.670;  -12.010;  796.780
978.634;   83.858;  -10.170;  921.320
979.187;   77.824;   -9.020;  905.400
979.741;   77.001;   -9.820; 1018.380
980.294;   74.590;  -14.870;  789.160
980.848;   74.657;  -12.380;  717.220
981.401;   77.772;  -10.350;  816.540
981.955;   80.753;  -13.720;  844.300
982.508;   80.251;  -11.490;  746.340
983.061;   81.980;  -10.000;  915.260
983.615;   79.605;  -11.480;  798.800
984.168;   78.017;  -13.220;  770.080
984.721;   78.289;  -13.960;  880.760
985.274;   77.710;  -10.870;  867.500
985.827;   77.588;   -9.790;  834.220
986.380;   75.957;  -13.120;  721.340
986.933;   75.939;  -12.450;  864.800
987.486;   74.131;  -10.210;  861.920
988.039;   73.284;   -8.430;  863.100
988.591;   72.818;  -10.520;  893.260
989.144;   70.306;  -14.860;  737.260
989.697;   69.488;  -13.080;  758.740
990.250;   70.015;  -10.150;  858.100
990.802;   69.193;  -13.430;  755.860
991.355;   70.368;  -12.750;  974.880
991.907;   68.138;  -12.040;  864.320
992.460;   65.909;  -11.330;  753.760
993.012;   66.114;  -13.610;  749.540
993.565;   63.872;  -13.460;  711.360
994.117;   64.700;   -9.360;  950.780
994.669;   60.515;  -11.300;  701.320
995.221;   59.421;  -13.540;  791.920
995.774;   57.981;  -13.430;  787.580
996.326;   57.429;  -12.520;  740.220
996.878;   57.492;  -10.950;  838.420
997.430;   55.786;  -14.300;  699.860
997.982;   54.482;  -13.760;  750.140
998.534;   54.847;  -11.530;  739.060
999.086;   52.514;  -10.310;  738.220
999.638;   52.208;  -12.530;  661.380
1000.190;   51.210;  -11.840;  699.320
1000.741;   51.630;  -10.260;  742.700
1001.293;   50.872;   -8.860;  686.020
1001.845;   49.953;  -13.700;  676.640
1002.396;   49.586;  -12.100;  743.400
1002.948;   49.658;  -12.760;  737.400
1003.500;   48.475;  -10.380;  723.780
1004.051;   48.828;  -11.900;  907.580
1004.603;   47.037;  -12.250;  791.820
1005.154;   42.601;  -13.210;  608.980
1005.705;   42.341;  -10.950;  723.960
1006.257;   42.112;  -13.880;  707.220
1006.808;   41.244;  -12.840;  685.460
1007.359;   40.716;  -10.570;  763.240
1007.910;   39.586;   -9.620;  646.640
1008.461;   39.761;  -13.630;  732.940
1009.013;   38.654;  -17.200;  588.340
1009.564;   39.706;  -10.200;  793.520
1010.115;   37.600;  -12.570;  597.040
1010.665;   37.360;  -15.150;  602.160
1011.216;   37.445;  -14.480;  667.920
1011.767;   37.165;  -11.340;  697.920
1012.318;   37.594;   -9.780;  736.980
1012.869;   36.347;  -12.380;  679.000
1013.419;   35.457;  -15.560;  603.120
1013.970;   35.902;  -11.010;  666.640
1014.521;   34.823;  -11.610;  620.620
1015.071;   35.603;  -13.450;  670.380
1015.622;   34.543;  -13.870;  635.460
1016.172;   34.307;  -11.610;  596.820
1016.723;   34.110;  -12.120;  614.380
1017.273;   33.471;  -13.620;  604.160
1017.823;   34.058;  -14.140;  650.340
1018.374;   33.522;  -12.800;  611.760
1018.924;   33.206;  -12.340;  716.880
1019.474;   33.382;  -11.410;  718.880
1020.024;   32.005;  -14.770;  657.580
1020.574;   32.340;   -9.780;  726.160
1021.124;   33.511;   -8.560;  673.580
1021.674;   31.559;  -15.190;  559.120
1022.224;   32.198;  -13.530;  708.940
1022.774;   32.371;  -13.280;  668.820
1023.324;   32.506;  -10.690;  753.520
1023.874;   32.910;  -10.240;  875.760
1024.423;   30.455;  -12.540;  613.700
1024.973;   30.897;  -10.010;  610.760
1025.523;   29.767;  -10.550;  620.960
1026.072;   29.819;  -13.560;  606.420
1026.622;   29.805;  -15.120;  675.740
1027.172;   30.389;  -11.260;  715.660
1027.721;   29.818;  -11.410;  601.220
1028.270;   29.241;  -13.530;  663.400
1028.820;   29.596;  -13.680;  638.080
1029.369;   28.215;  -13.520;  612.700
1029.918;   29.578;  -10.980;  649.840
1030.468;   28.667;  -13.530;  564.780
1031.017;   29.410;  -13.170;  634.800
1031.566;   28.027;  -12.200;  608.900
1032.115;   28.360;   -9.960;  694.500
1032.664;   26.773;  -13.210;  596.480
1033.213;   27.690;  -12.500;  735.420
1033.762;   27.905;  -11.910;  635.620
1034.311;   27.637;   -9.640;  677.220
1034.860;   27.473;  -13.310;  691.000
1035.408;   27.128;  -11.830;  722.720
1035.957;   28.253;  -12.000;  719.540
1036.506;   25.649;  -11.690;  530.800
1037.055;   28.082;  -10.990;  844.320
1037.603;   26.814;  -15.120;  664.000
1038.152;   24.579;  -12.450;  534.760
1038.700;   25.827;  -10.560;  585.740
1039.249;   25.841;  -11.080;  681.220
1039.797;   25.468;  -12.540;  633.360
1040.345;   25.131;  -11.920;  705.420
1040.894;   25.062;  -11.410;  625.300
1041.442;   24.950;  -14.320;  632.200
1041.990;   23.844;  -16.240;  559.160
1042.538;   23.838;  -11.680;  536.180
1043.087;   23.494;  -10.760;  570.860
1043.635;   25.540;  -11.850;  670.500
1044.183;   24.182;  -15.480;  586.400
1044.731;   23.520;  -11.770;  576.000
1045.279;   23.302;  -13.090;  674.920
1045.827;   25.522;  -12.440;  892.400
1046.374;   22.753;  -13.840;  515.420
1046.922;   21.970;  -13.220;  590.580
1047.470;   23.362;  -10.230;  691.300
1048.018;   23.505;  -14.590;  647.960
1048.565;   23.391;  -12.050;  708.600
1049.113;   21.595;  -11.650;  557.000
1049.660;   22.502;  -10.510;  629.660
1050.208;   22.957;  -13.310;  675.640
1050.755;   21.854;  -15.900;  606.580
1051.303;   22.390;  -11.430;  686.820
1051.850;   21.740;   -8.480;  635.120
1052.397;   19.593;  -15.010;  473.960
1052.945;   20.758;  -13.960;  617.760
1053.492;   22.407;  -13.150;  741.840
1054.039;   22.586;   -9.630;  720.180
1054.586;   21.053;  -13.680;  557.240
1055.133;   20.951;  -14.570;  693.140
1055.680;   21.375;  -13.820;  646.620
1056.227;   19.851;  -11.730;  542.780
1056.774;   22.023;  -12.480;  794.980
1057.321;   19.301;  -13.930;  523.260
1057.868;   19.941;  -11.690;  651.320
1058.415;   20.294;   -9.520;  651.980
1058.961;   20.197;  -13.160;  678.940
1059.508;   20.077;  -12.920;  643.820
1060.055;   19.333;  -11.920;  581.780
1060.601;   19.934;  -11.500;  624.300
1061.148;   20.114;  -14.330;  616.820
1061.694;   18.186;  -16.870;  592.580
1062.241;   18.503;  -10.330;  596.320
1062.787;   19.484;  -10.620;  663.140
1063.334;   20.853;  -10.110;  808.560
1063.880;   19.148;  -13.400;  668.360
1064.426;   18.604;  -10.680;  706.820
1064.972;   18.113;   -9.920;  601.340
1065.518;   16.614;  -10.980;  566.640
1066.065;   18.446;  -14.890;  624.460
1066.611;   17.602;  -12.870;  598.800
1067.157;   18.671;  -12.950;  641.860
1067.703;   18.026;  -13.540;  668.480
1068.249;   18.107;  -13.540;  605.220
1068.794;   17.237;  -12.600;  626.880
1069.340;   16.267;  -10.620;  578.960
1069.886;   17.361;  -12.830;  590.700
1070.432;   16.036;  -14.870;  541.720
1070.977;   16.109;  -11.980;  601.080
1071.523;   16.877;   -8.200;  573.060
1072.068;   16.702;  -12.330;  582.000
1072.614;   16.814;  -16.370;  527.760
1073.160;   16.882;  -11.100;  687.040
1073.705;   15.732;  -10.480;  572.520
1074.250;   15.900;  -14.520;  559.900
1074.796;   16.725;  -11.460;  655.160
1075.341;   17.034;  -11.950;  664.100
1075.886;   16.078;  -11.460;  594.240
1076.431;   15.349;  -13.770;  649.880
1076.976;   15.689;  -12.680;  639.220
1077.521;   14.793;  -13.170;  583.080
1078.067;   15.263;  -10.860;  579.400
1078.612;   15.014;  -13.920;  661.620
1079.156;   15.296;  -13.880;  601.540
1079.701;   15.449;  -13.120;  693.260
1080.246;   15.278;   -9.940;  696.300
1080.791;   15.055;  -14.740;  625.020
1081.336;   14.582;  -13.750;  659.320
1081.880;   14.277;  -13.400;  649.680
1082.425;   13.656;  -12.220;  573.480
1082.970;   14.489;  -11.610;  717.040
1083.514;   13.931;  -13.580;  597.000
1084.059;   13.215;  -12.810;  586.720
1084.603;   12.772;  -12.320;  565.840
1085.147;   13.940;  -13.190;  645.220
1085.692;   15.251;  -12.480;  716.800
1086.236;   12.777;  -13.020;  503.140
1086.780;   15.004;   -9.190;  751.440
1087.325;   13.405;  -12.480;  654.620
1087.869;   13.187;  -12.450;  610.700
1088.413;   13.873;  -12.240;  705.040
1088.957;   11.890;   -9.020;  543.400
1089.501;   14.538;  -10.320;  766.640
1090.045;   13.103;  -12.720;  726.480
1090.589;   11.316;  -13.690;  569.920
1091.133;   12.792;  -10.020;  673.340
1091.676;   12.993;  -12.330;  591.940
1092.220;   12.179;  -14.970;  600.920
1092.764;   13.014;  -12.430;  706.960
1093.307;   13.136;   -9.800;  673.780
1093.851;   10.616;  -14.970;  556.540
1094.395;   12.224;  -15.310;  683.140
1094.938;   11.206;  -10.370;  632.520
1095.482;   11.559;  -11.050;  559.800
1096.025;   12.376;  -11.840;  710.880
1096.568;   12.296;  -12.840;  779.280
1097.112;    8.998;  -14.700;  508.180
1097.655;   11.613;   -8.720;  603.000
1098.198;   10.216;  -13.610;  600.180
1098.741;   10.459;  -13.350;  612.860
1099.285;   10.993;  -11.230;  657.300
1099.828;    9.013;  -11.840;  439.400
1100.371;   10.394;  -10.840;  608.160
1100.914;   10.186;  -14.190;  682.660
1101.457;   10.520;  -11.240;  679.900
1101.999;    9.077;  -11.270;  584.680
1102.542;   10.495;  -11.480;  641.440
1103.085;    9.057;  -11.750;  658.500
1103.628;   10.055;  -11.400;  762.060
1104.170;    9.232;  -10.490;  588.280
1104.713;   10.653;  -10.600;  646.700
1105.256;    8.838;  -14.360;  557.440
1105.798;    7.588;  -13.210;  499.980
1106.341;   10.205;  -10.270;  728.900
1106.883;    9.241;  -12.200;  521.340
1107.425;    9.378;  -13.110;  668.180
1107.968;    9.269;  -12.840;  612.380
1108.510;    9.409;   -6.480;  684.960
1109.052;    7.694;  -13.940;  612.620
1109.594;    8.034;  -13.690;  554.440
1110.136;    8.611;  -11.880;  643.220
1110.679;    8.074;   -9.500;  633.080
1111.221;    8.801;  -14.160;  604.460
1111.763;    7.174;  -13.980;  559.220
1112.304;    7.520;  -13.880;  547.140
1112.846;    8.332;  -12.210;  666.240
1113.388;   11.080;  -11.390;  942.180
1113.930;    7.724;  -14.540;  694.200
1114.472;    6.660;  -12.640;  606.540
1115.013;    6.818;  -11.620;  551.280
1115.555;    6.553;  -13.640;  587.100
1116.097;    6.092;  -15.380;  579.480
1116.638;    7.273;  -12.640;  684.600
1117.180;    7.820;   -9.850;  667.740
1117.721;    6.965;  -13.690;  568.580
1118.262;    8.099;  -12.680;  677.960
1118.804;    7.764;  -12.530;  637.340
1119.345;    5.829;  -11.690;  578.400
1119.886;    7.739;  -13.380;  704.040
1120.427;    5.617;  -14.070;  589.020
1120.969;    5.237;  -13.500;  597.920
1121.510;    5.860;  -11.480;  563.060
1122.051;    6.435;  -12.830;  723.580
1122.592;    5.773;  -14.290;  655.420
1123.133;    4.662;  -12.400;  547.940
1123.673;    7.324;  -10.130;  706.480
1124.214;    5.411;  -12.930;  612.460
1124.755;    6.712;  -14.380;  639.460
1125.296;    5.841;  -14.000;  627.320
1125.836;    5.999;  -10.070;  691.500
1126.377;    5.601;  -12.640;  599.660
1126.918;    6.017;  -12.960;  614.980
1127.458;    4.844;  -13.350;  622.220
1127.999;    5.327;  -10.750;  656.980
1128.539;    5.814;  -12.350;  694.240
1129.079;    4.478;  -14.860;  632.720
1129.620;    4.722;  -13.840;  558.100
1130.160;    4.077;  -12.330;  539.480
1130.700;    5.803;  -14.530;  640.840
1131.240;    5.363;  -12.530;  643.700
1131.781;    3.783;  -14.450;  619.680
1132.321;    4.368;   -9.790;  599.120
1132.861;    3.455;  -14.860;  564.200
1133.401;    3.596;  -14.290;  593.940
1133.941;    4.467;  -11.750;  626.280
1134.481;    4.137;   -9.920;  597.580
1135.020;    3.717;  -12.290;  609.160
1135.560;    4.346;  -11.650;  674.940
1136.100;    3.375;  -16.270;  501.160
1136.640;    3.397;  -10.890;  510.480
1137.179;    3.182;  -14.180;  537.960
1137.719;    2.939;  -16.250;  605.400
1138.258;    3.536;  -14.230;  587.360
1138.798;    4.125;   -9.090;  663.780
1139.337;    2.134;  -15.130;  482.840
1139.877;    3.497;  -13.680;  642.360
1140.416;    5.186;  -11.320;  878.060
1140.955;    1.977;  -10.860;  535.380
1141.494;    3.184;  -12.920;  669.280
1142.034;    2.840;  -13.930;  583.520
1142.573;    3.486;  -11.440;  646.280
1143.112;    2.066;  -12.000;  553.480
1143.651;    2.801;  -13.670;  536.480
1144.190;    3.250;  -12.730;  691.640
1144.729;    2.301;  -14.560;  607.420
1145.267;    2.760;  -11.830;  584.900
1145.806;    3.180;  -12.230;  637.040
1146.345;    2.299;  -14.130;  635.020
1146.884;    1.462;  -11.590;  622.500
1147.422;    1.822;  -12.550;  533.060
1147.961;    3.473;  -11.180;  708.460
1148.500;    3.329;  -11.510;  669.720
1149.038;    2.233;  -11.640;  632.500
1149.577;    1.929;  -10.130;  698.640
1150.115;    0.452;  -13.970;  452.280
1150.653;    2.268;  -14.520;  607.340
1151.192;    1.742;  -12.810;  552.920
1151.730;    1.724;   -9.100;  652.560
1152.268;    0.924;  -12.220;  589.520
1152.806;    1.344;  -14.140;  571.180
1153.344;   -0.298;  -12.350;  577.640
1153.882;    1.215;   -8.980;  600.060
1154.421;   -0.102;  -15.190;  470.620
1154.958;    1.167;  -15.210;  595.240
1155.496;    2.048;  -12.850;  645.280
1156.034;    1.907;   -9.940;  721.880
1156.572;    2.144;  -13.570;  667.060
1157.110;   -0.108;  -14.590;  473.940
1157.647;    1.775;  -13.030;  676.960
1158.185;    0.557;  -12.140;  564.320
1158.723;   -0.493;  -14.390;  509.200
1159.260;    0.491;  -14.090;  701.700
1159.798;    1.295;  -11.920;  658.160
1160.335;    0.748;  -11.110;  631.820

