
Integration time [ms]:   3.882
Averaging Nr. [scans]: 1000
Smoothing Nr. [pixels]: 0
Data measured with spectrometer [name]: 7414430SP
Wave   ;Sample   ;Dark     ;Reference
[nm]   ;[counts] ;[counts] ;[counts] 

288.544;  140.478;    7.153;  793.890
289.143;  144.615;    8.402;  681.602
289.742;  146.387;    7.062;  828.814
290.341;  133.129;    0.191;  789.841
290.940;  123.815;    0.321;  730.702
291.538;  124.846;    3.811;  881.108
292.137;  123.231;   -3.438;  792.581
292.736;  125.717;   -2.809;  975.101
293.335;  122.250;   -5.239;  735.086
293.934;  124.498;   -4.939;  781.677
294.532;  124.310;   -2.199; 1031.958
295.131;  110.816;   -6.831;  834.394
295.730;  109.831;   -6.620;  809.588
296.328;  106.982;   -6.471;  783.442
296.927;  107.013;   -6.571;  779.652
297.525;  108.015;   -7.391;  781.236
298.124;   98.887;   -9.402;  654.009
298.722;  103.879;   -5.781;  761.933
299.321;  102.044;   -6.351;  708.597
299.919;   99.150;   -8.661;  751.918
300.518;   95.093;  -11.922;  689.338
301.116;   96.610;   -6.941;  691.381
301.715;   98.029;   -5.471;  730.222
302.313;   96.831;   -8.361;  704.943
302.911;   92.067;   -9.082;  733.830
303.509;   97.767;   -4.571;  925.627
304.108;   95.451;   -7.111;  760.383
304.706;   94.158;   -7.681;  801.664
305.304;   89.006;   -9.162;  796.707
305.902;   94.211;   -6.761;  784.484
306.500;   90.233;   -6.921;  728.200
307.098;   88.794;   -6.491;  746.560
307.696;   86.836;   -6.941;  780.432
308.294;   86.560;   -6.301;  731.359
308.892;   89.222;   -4.771;  759.769
309.490;   85.391;   -5.141;  712.161
310.088;   83.299;   -2.912;  788.444
310.686;   89.075;   -0.421;  821.749
311.284;   84.110;   -3.461;  766.040
311.882;   81.666;   -6.282;  731.225
312.480;   77.967;   -3.632;  697.167
313.078;   81.121;   -2.112;  808.331
313.675;   81.642;   -1.931;  691.600
314.273;   76.091;   -1.442;  797.837
314.871;   75.029;   -3.002;  589.829
315.468;   73.121;   -2.252;  652.090
316.066;   77.221;   -1.091;  694.427
316.664;   69.657;   -4.512;  656.351
317.261;   73.301;   -0.062;  910.128
317.859;   69.426;   -0.952;  768.735
318.456;   71.074;    0.719;  830.096
319.054;   65.857;   -4.002;  787.828
319.651;   65.345;   -4.972;  759.928
320.249;   64.216;   -1.162;  810.188
320.846;   62.388;   -2.651;  714.286
321.443;   60.300;   -3.832;  832.135
322.041;   56.713;   -4.312;  812.315
322.638;   54.405;   -3.872;  701.456
323.235;   56.891;   -4.361;  665.683
323.833;   54.045;   -4.821;  740.354
324.430;   48.950;   -6.971;  615.900
325.027;   50.450;   -4.361;  876.855
325.624;   51.271;   -5.581;  644.532
326.221;   47.887;   -6.601;  689.717
326.818;   46.839;   -7.301;  818.332
327.415;   49.206;   -6.180;  748.828
328.012;   49.452;   -5.920;  690.585
328.609;   47.975;   -8.390;  731.389
329.206;   45.855;   -6.121;  778.621
329.803;   44.498;   -5.241;  737.841
330.400;   47.870;   -7.420;  704.260
330.997;   47.934;   -5.931;  817.147
331.594;   45.839;   -5.641;  788.185
332.191;   52.239;   -6.451;  728.722
332.787;   55.200;   -4.651;  844.463
333.384;   52.645;   -5.472;  763.093
333.981;   49.785;   -6.303;  815.687
334.578;   51.940;   -5.892;  708.378
335.174;   54.722;   -4.102;  731.469
335.771;   55.535;   -8.053;  836.456
336.367;   50.929;   -7.363;  710.631
336.964;   54.744;   -6.243;  793.266
337.561;   54.207;   -5.653;  731.112
338.157;   49.613;   -7.074;  911.916
338.754;   47.345;   -5.474;  796.589
339.350;   47.197;   -5.624;  722.493
339.946;   49.515;   -5.054;  773.135
340.543;   41.405;   -6.695;  846.136
341.139;   35.249;   -6.215;  720.836
341.735;   34.251;   -5.746;  772.593
342.332;   33.692;   -7.335;  691.472
342.928;   31.486;   -4.835;  795.394
343.524;   27.244;   -4.586;  761.684
344.120;   23.851;   -3.946;  738.562
344.716;   28.073;   -4.835;  723.717
345.313;   25.440;   -5.325;  795.342
345.909;   20.487;   -6.535;  627.336
346.505;   21.899;   -4.725;  740.247
347.101;   22.613;   -4.164;  827.864
347.697;   22.610;   -5.274;  785.398
348.293;   16.839;   -7.145;  627.244
348.889;   17.619;   -4.364;  745.914
349.485;   18.143;   -6.404;  688.205
350.081;   18.343;   -7.534;  772.592
350.676;   13.707;   -6.995;  691.606
351.272;   18.466;   -3.544;  809.530
351.868;   17.642;   -5.324;  780.497
352.464;   14.976;   -7.204;  723.932
353.059;   11.090;   -6.894;  646.017
353.655;   14.778;   -3.754;  777.063
354.251;   16.454;   -6.143;  759.845
354.846;   10.290;   -9.464;  740.646
355.442;    7.887;   -7.555;  753.071
356.038;    9.934;   -5.474;  751.708
356.633;   10.140;   -5.914;  728.594
357.229;    8.286;   -8.944;  724.757
357.824;    6.576;   -6.794;  703.600
358.420;    5.701;   -5.754;  679.726
359.015;    6.305;   -5.664;  695.357
359.610;    7.224;   -8.004;  763.920
360.206;    0.448;   -8.815;  603.240
360.801;    4.129;   -8.834;  646.503
361.396;    7.369;   -6.274;  725.975
361.992;    1.544;   -8.574;  668.220
362.587;   -1.260;   -9.265;  670.160
363.182;    1.270;   -5.484;  689.631
363.777;    2.141;   -5.164;  738.242
364.372;    1.804;   -6.954;  737.314
364.967;   -1.982;   -7.065;  680.744
365.563;    2.680;   -5.684;  815.567
366.158;    0.327;   -6.484;  685.161
366.753;   -0.167;   -8.004;  649.263
367.348;   -0.947;  -10.114;  746.056
367.942;   -1.132;   -7.764;  697.298
368.537;   -1.591;   -4.554;  754.245
369.132;   -2.333;   -7.664;  703.428
369.727;   -6.210;   -8.905;  638.079
370.322;   -5.002;   -4.945;  580.186
370.917;   -4.980;   -7.095;  710.646
371.511;   -1.983;   -6.574;  861.834
372.106;   -5.986;   -6.515;  776.964
372.701;   -8.189;   -8.225;  585.988
373.296;   -2.444;   -4.494;  863.135
373.890;   -7.571;   -7.965;  647.840
374.485;  -10.519;   -9.745;  691.199
375.079;   -6.348;   -5.554;  738.685
375.674;   -4.214;   -4.724;  812.970
376.268;   -8.714;   -8.365;  691.759
376.863;  -15.240;   -8.126;  580.327
377.457;   -8.714;   -6.045;  662.490
378.052;   -9.845;   -6.835;  764.884
378.646;  -11.006;   -9.375;  741.167
379.240;  -11.757;   -6.185;  721.176
379.835;  -11.160;   -6.135;  636.978
380.429;  -12.516;   -8.365;  562.557
381.023;  -12.727;   -7.935;  779.205
381.617;  -14.810;   -8.325;  680.106
382.212;  -11.587;   -7.405;  685.303
382.806;  -10.173;   -4.155;  760.690
383.400;  -14.116;   -8.945;  672.281
383.994;  -16.059;   -8.365;  664.870
384.588;  -11.534;   -7.824;  697.701
385.182;   -9.821;   -7.984;  726.624
385.776;  -11.860;  -10.404;  706.875
386.370;  -15.111;   -7.335;  681.968
386.964;  -14.472;   -7.485;  684.155
387.558;  -11.930;   -8.174;  598.360
388.152;  -15.365;  -10.415;  681.959
388.745;  -13.278;   -9.595;  814.707
389.339;  -11.634;   -6.454;  747.642
389.933;  -10.202;   -5.804;  695.370
390.527;  -12.159;   -6.854;  859.029
391.120;  -19.157;   -7.665;  595.318
391.714;  -15.145;   -7.245;  711.633
392.308;  -12.069;   -4.514;  780.253
392.901;  -16.615;   -7.935;  642.460
393.495;  -18.121;   -8.585;  595.414
394.089;  -15.262;   -5.245;  760.452
394.682;  -15.905;   -6.305;  697.188
395.275;  -16.873;   -9.335;  719.927
395.869;  -18.387;   -7.375;  667.314
396.462;  -16.616;   -7.055;  616.609
397.056;  -12.556;   -5.434;  776.621
397.649;  -17.389;   -9.525;  731.575
398.242;  -14.452;   -7.574;  712.645
398.836;  -13.129;   -5.134;  766.408
399.429;  -13.585;   -6.544;  631.041
400.022;  -18.755;   -9.215;  665.902
400.615;  -15.481;   -8.105;  805.609
401.208;  -14.180;   -7.614;  691.451
401.802;  -16.041;   -8.085;  699.329
402.395;  -18.136;   -9.575;  683.502
402.988;  -18.765;   -9.285;  696.627
403.581;  -14.975;   -7.514;  646.878
404.174;  -12.412;   -6.404;  686.568
404.767;  -16.547;   -8.775;  638.583
405.360;  -18.716;   -7.415;  621.445
405.953;  -12.517;   -5.624;  759.034
406.545;  -11.386;   -6.474;  725.342
407.138;  -16.763;   -8.445;  618.350
407.731;  -15.693;  -10.044;  613.303
408.324;  -11.717;   -8.484;  660.554
408.917;  -11.913;   -7.624;  681.864
409.509;  -13.901;   -8.304;  740.396
410.102;  -16.330;   -8.495;  643.948
410.695;   -9.996;   -7.824;  665.758
411.287;  -10.682;   -7.754;  599.821
411.880;  -12.355;   -9.294;  585.421
412.472;  -15.949;   -8.814;  613.092
413.065;  -12.728;   -6.674;  629.408
413.657;   -9.700;   -9.664;  576.678
414.250;   -9.714;  -10.264;  646.681
414.842;  -12.177;   -8.664;  676.353
415.434;  -10.339;   -8.584;  570.463
416.027;   -4.556;   -9.423;  652.196
416.619;   -7.234;  -10.764;  713.400
417.211;   -8.400;   -7.404;  599.352
417.804;   -4.324;   -7.383;  628.499
418.396;   -8.097;   -8.334;  607.643
418.988;   -6.423;   -9.633;  659.238
419.580;  -10.134;  -10.554;  568.276
420.172;   -8.004;   -8.683;  536.196
420.764;   -2.874;   -9.713;  672.482
421.356;   -4.731;  -11.303;  636.898
421.948;   -5.297;   -8.453;  677.661
422.540;    0.104;   -5.793;  680.027
423.132;   -1.203;   -7.162;  600.641
423.724;   -4.497;   -7.933;  561.267
424.316;   -2.790;   -9.083;  621.345
424.908;    0.855;   -8.392;  591.517
425.500;    2.984;   -8.062;  647.978
426.092;    2.708;   -9.692;  648.268
426.683;    1.989;   -8.223;  684.836
427.275;    4.665;   -8.602;  641.471
427.867;    6.320;   -8.382;  668.948
428.458;    5.955;  -10.472;  732.344
429.050;    4.778;   -9.112;  680.749
429.642;    6.497;   -7.752;  743.124
430.233;    7.210;   -8.832;  569.356
430.825;    8.847;   -8.292;  724.809
431.416;    6.193;   -7.522;  698.241
432.008;   10.042;   -9.262;  651.723
432.599;   10.340;   -6.441;  656.073
433.190;    7.957;   -9.222;  637.670
433.782;    6.516;  -11.832;  590.395
434.373;   15.160;   -7.121;  884.765
434.964;   12.965;   -9.141;  602.920
435.556;   10.374;   -9.332;  634.537
436.147;   12.667;   -8.892;  758.490
436.738;   13.003;   -8.151;  701.099
437.329;   19.022;   -8.281;  721.723
437.920;   11.136;   -9.062;  666.688
438.511;   10.833;  -11.182;  564.526
439.103;   18.084;   -7.461;  623.998
439.694;   20.315;   -8.541;  681.583
440.285;   21.017;   -7.351;  764.432
440.876;   18.533;   -8.201;  845.738
441.466;   17.601;  -10.381;  575.162
442.057;   23.434;   -7.620;  665.814
442.648;   21.498;   -8.461;  746.255
443.239;   20.147;   -8.991;  620.477
443.830;   26.009;   -7.910;  704.958
444.421;   27.180;   -7.340;  655.474
445.011;   24.067;   -8.981;  693.619
445.602;   23.154;   -9.341;  743.126
446.193;   25.361;  -11.390;  488.117
446.783;   30.206;  -11.240;  640.397
447.374;   24.623;   -8.471;  692.759
447.964;   25.116;   -8.471;  713.770
448.555;   34.042;   -6.590;  822.742
449.145;   30.140;   -8.200;  662.853
449.736;   31.846;  -11.040;  803.179
450.326;   31.371;   -9.640;  713.626
450.917;   35.847;   -9.480;  675.324
451.507;   35.201;   -8.020;  600.661
452.097;   36.292;  -10.210;  746.267
452.688;   36.853;   -7.810;  742.160
453.278;   37.448;   -9.360;  566.840
453.868;   41.899;   -8.669;  793.550
454.458;   39.570;  -10.950;  651.141
455.048;   39.168;  -10.200;  711.783
455.639;   41.132;   -9.369;  567.096
456.229;   45.446;   -7.739;  710.694
456.819;   46.684;   -8.939;  751.158
457.409;   46.824;   -7.169;  773.993
457.999;   49.001;   -7.779;  737.505
458.589;   49.387;   -7.039;  686.606
459.179;   49.280;   -9.019;  717.658
459.769;   46.710;   -8.909;  627.099
460.358;   52.171;   -8.659;  797.262
460.948;   52.484;   -8.209;  689.503
461.538;   53.919;   -9.879;  660.677
462.128;   51.536;   -9.379;  664.934
462.717;   58.814;   -9.158;  710.326
463.307;   62.201;   -8.638;  705.846
463.897;   57.815;   -8.869;  656.942
464.486;   56.008;   -7.409;  837.128
465.076;   60.979;   -9.618;  733.776
465.666;   64.366;   -7.578;  652.900
466.255;   62.317;   -9.369;  785.651
466.845;   60.744;  -10.049;  666.749
467.434;   64.421;   -8.168;  725.873
468.023;   65.537;   -9.188;  658.357
468.613;   62.493;   -9.849;  713.946
469.202;   67.365;  -12.958;  646.507
469.791;   71.663;   -9.488;  737.811
470.381;   73.426;   -6.468;  742.813
470.970;   72.815;  -10.248;  711.099
471.559;   72.184;  -11.428;  733.291
472.148;   75.359;   -9.738;  675.737
472.738;   78.156;   -7.877;  765.466
473.327;   77.505;  -11.868;  637.529
473.916;   76.380;   -8.578;  737.446
474.505;   80.470;  -11.137;  751.703
475.094;   85.099;   -9.407;  806.570
475.683;   83.329;   -9.977;  797.699
476.272;   84.455;  -10.807;  730.632
476.861;   87.447;  -11.017;  706.754
477.449;   94.650;  -10.316;  728.487
478.038;   88.241;  -10.187;  692.513
478.627;   89.448;  -12.458;  714.852
479.216;   96.225;  -10.127;  769.441
479.805;   99.264;   -6.256;  783.375
480.393;   99.134;   -8.737; 1008.945
480.982;   97.292;   -9.087;  874.501
481.571;  103.627;   -7.806;  858.333
482.159;  104.738;  -10.596;  705.386
482.748;  103.828;  -11.507;  821.385
483.336;  107.741;   -8.366;  858.209
483.925;  108.988;   -7.497;  774.373
484.513;  115.701;   -8.326;  758.962
485.102;  111.905;  -10.277;  810.965
485.690;  120.721;   -8.256; 1011.050
486.278;  122.636;   -7.146;  979.329
486.867;  123.033;   -7.986;  809.662
487.455;  124.668;   -9.926;  898.229
488.043;  125.805;  -10.026;  748.361
488.631;  134.979;   -7.226; 1005.079
489.220;  139.604;   -8.696;  908.626
489.808;  137.891;  -12.276;  741.415
490.396;  145.085;   -9.386;  914.645
490.984;  150.130;   -8.506;  830.161
491.572;  159.911;   -8.226;  940.315
492.160;  164.660;   -9.836;  919.081
492.748;  175.263;  -10.316;  884.341
493.336;  194.627;   -7.146; 1019.693
493.924;  216.820;   -7.965;  958.077
494.512;  243.037;  -10.316; 1066.638
495.100;  277.180;  -10.186; 1103.280
495.687;  332.366;   -7.805; 1206.373
496.275;  391.476;   -9.686; 1150.796
496.863;  471.870;  -11.566; 1281.171
497.451;  552.594;  -11.406; 1386.805
498.038;  651.786;   -8.235; 1556.729
498.626;  777.742;   -7.485; 1741.407
499.214;  941.265;   -8.646; 2016.609
499.801; 1191.081;   -9.936; 2220.633
500.389; 1406.720;   -8.056; 2312.494
500.976; 1560.210;   -6.166; 2744.849
501.564; 1748.252;   -9.126; 3148.565
502.151; 2036.690;  -12.456; 3515.999
502.738; 2426.377;  -10.056; 3971.274
503.326; 2853.482;  -10.605; 4403.796
503.913; 3253.618;  -10.576; 5161.749
504.500; 3744.781;   -9.056; 5986.420
505.088; 4304.693;  -10.136; 6381.201
505.675; 5009.906;   -9.075; 6925.547
506.262; 5468.541;  -11.346; 7619.060
506.849; 6327.272;   -9.376; 8733.969
507.436; 7121.978;   -7.365; 9790.121
508.023; 7049.618;   -8.686; 9985.472
508.610; 7202.368;   -8.846;10434.618
509.197; 8011.891;   -9.077;11198.435
509.784; 9487.939;  -10.246;12391.194
510.371;10685.054;   -9.825;13603.713
510.958;11655.057;  -10.896;14426.586
511.545;12388.184;   -9.006;15243.775
512.132;12228.717;   -8.765;15945.876
512.719;12714.813;   -8.286;16340.369
513.305;14763.428;   -9.256;18011.766
513.892;16935.646;  -11.106;19754.971
514.479;19960.627;   -8.576;20967.805
515.066;22926.842;   -9.046;22299.793
515.652;23660.705;  -10.676;22908.660
516.239;24133.680;  -10.166;23798.875
516.825;23703.557;  -11.266;25567.275
517.412;23057.471;   -7.446;28154.959
517.998;22751.939;  -10.916;28344.111
518.585;22293.598;   -9.166;27134.219
519.171;21409.320;  -10.135;27268.576
519.758;22217.756;   -8.806;28964.129
520.344;25037.559;   -6.716;30664.494
520.930;27765.471;  -10.166;32550.605
521.516;27977.699;   -9.615;35422.895
522.103;30151.547;   -8.656;38280.004
522.689;31105.242;   -9.646;37835.117
523.275;30395.611;  -10.786;37288.613
523.861;32742.174;   -9.266;37281.395
524.447;33708.055;   -8.285;37846.949
525.033;32974.109;   -9.426;38321.949
525.619;33050.395;   -9.836;38579.285
526.205;35182.406;   -8.136;40622.875
526.791;35773.863;   -9.986;42258.836
527.377;35165.641;   -8.236;42966.902
527.963;33982.965;  -12.117;42018.949
528.549;31508.598;   -8.376;42476.828
529.135;30170.227;   -8.696;41854.852
529.721;31142.457;   -9.686;41237.711
530.306;35096.195;   -8.616;41259.445
530.892;40596.074;   -9.396;41506.047
531.478;43111.633;   -9.926;43559.613
532.063;43658.926;  -10.236;47695.563
532.649;44664.434;   -8.257;50808.324
533.235;45716.313;  -11.476;51787.500
533.820;45220.816;   -8.156;52145.035
534.406;46063.055;  -12.257;51133.488
534.991;42920.086;   -8.686;49996.805
535.576;39431.246;   -9.426;48882.852
536.162;37744.355;   -8.436;46942.285
536.747;36106.449;  -10.957;45711.746
537.333;33260.785;  -13.147;48510.180
537.918;33121.648;   -9.027;50439.891
538.503;36690.773;   -8.256;50863.711
539.088;41694.633;  -10.576;50906.922
539.673;46298.426;  -10.907;52621.965
540.259;49624.711;   -9.126;52368.094
540.844;50107.914;   -9.026;50879.109
541.429;50498.391;   -9.597;52077.777
542.014;53242.891;  -11.447;52716.695
542.599;54416.516;   -9.236;52363.281
543.184;53416.582;  -12.267;53187.137
543.769;53798.852;  -10.367;54697.605
544.354;53807.605;  -10.887;53913.914
544.938;47559.055;  -11.687;49680.164
545.523;42831.590;   -8.286;47386.277
546.108;43404.488;   -9.317;49151.949
546.693;44403.484;  -10.187;51384.637
547.278;42472.535;   -9.926;51853.254
547.862;41592.012;   -9.196;51173.750
548.447;41207.609;   -9.657;51691.395
549.031;42906.906;   -9.127;52456.703
549.616;45335.703;  -10.836;52714.516
550.201;46390.523;   -8.507;52414.598
550.785;47465.688;  -10.537;52355.059
551.370;50931.410;  -11.727;54589.453
551.954;50530.973;   -9.457;58267.348
552.538;48512.426;   -8.147;59062.176
553.123;47839.301;   -9.397;58115.285
553.707;49239.898;   -9.558;56556.285
554.291;48775.027;   -9.417;56201.668
554.876;50482.617;   -7.627;55335.762
555.460;48932.504;  -10.457;54155.703
556.044;44519.031;  -10.078;53721.484
556.628;43769.930;   -9.407;53731.016
557.212;42786.059;   -7.957;54312.531
557.796;41981.613;  -11.327;53797.773
558.380;45835.406;  -10.868;56145.984
558.964;46186.883;   -9.637;57277.930
559.548;44534.043;   -8.807;56459.641
560.132;46918.191;  -10.187;54434.543
560.716;47852.957;   -9.868;54800.617
561.300;49247.793;  -10.217;57606.945
561.884;49518.254;   -4.947;58972.445
562.467;46993.363;   -9.588;57327.570
563.051;42652.047;  -11.138;54962.434
563.635;42743.664;   -9.358;52594.473
564.219;43610.941;   -9.797;50610.410
564.802;42554.332;   -9.918;49551.180
565.386;41233.250;  -10.838;48370.953
565.969;40448.121;   -8.037;48178.871
566.553;39486.199;   -5.667;49957.305
567.136;39513.016;   -8.258;50369.594
567.720;39876.293;  -11.278;49492.004
568.303;37780.145;   -9.028;50616.352
568.887;36742.926;   -7.508;50727.148
569.470;35889.773;  -11.068;51698.379
570.053;37978.742;  -10.028;52122.078
570.637;38572.605;  -11.077;52536.438
571.220;40115.836;   -8.747;51186.098
571.803;42173.797;   -8.868;51032.762
572.386;43168.125;  -10.608;49609.887
572.969;42304.855;  -10.548;48285.926
573.552;39712.453;   -7.898;47624.285
574.135;39378.168;   -9.918;45498.641
574.718;35146.910;  -10.328;41970.434
575.301;32221.754;   -9.548;41447.137
575.884;29296.596;   -8.768;40923.836
576.467;34589.469;   -9.858;45267.723
577.050;35584.262;  -11.018;48175.543
577.633;37218.129;  -10.048;47729.328
578.216;36552.391;  -10.268;47579.793
578.799;34462.441;  -11.808;47820.996
579.381;33377.324;   -7.338;48115.551
579.964;35242.121;   -9.728;47333.766
580.547;35937.094;   -8.928;46668.969
581.129;35760.781;   -9.149;44466.141
581.712;37270.922;  -11.359;44164.922
582.294;37547.246;  -10.738;46477.855
582.877;35742.328;   -8.788;48244.254
583.459;34441.965;   -9.859;47437.895
584.042;35403.965;   -9.649;46943.219
584.624;35645.855;  -10.529;46792.227
585.206;33982.102;  -10.298;46557.250
585.789;32258.693;  -11.029;45793.773
586.371;32408.658;   -9.359;43836.391
586.953;33087.773;   -8.799;42972.492
587.536;33009.867;   -8.928;42487.211
588.118;32620.227;   -9.180;42086.414
588.700;31433.039;  -10.519;43389.930
589.282;30423.963;   -8.098;43646.039
589.864;30535.023;   -8.139;43438.109
590.446;31973.543;  -10.509;43151.926
591.028;34841.801;  -11.119;42781.867
591.610;35792.102;  -10.019;42839.098
592.192;34208.879;   -8.838;42820.402
592.774;31926.930;  -11.549;40724.277
593.356;29582.484;  -11.609;39874.789
593.937;30240.785;  -10.019;39980.648
594.519;32754.643;   -7.839;42069.633
595.101;33904.512;  -10.779;42976.031
595.683;35210.141;  -10.049;44084.441
596.264;35513.090;   -9.969;43478.797
596.846;33867.211;   -9.699;43803.672
597.427;32766.518;  -10.970;42986.934
598.009;33630.559;  -13.090;42832.219
598.591;33745.566;   -9.509;42580.086
599.172;32123.719;   -9.019;43061.805
599.753;29738.646;  -13.310;41691.469
600.335;29967.549;  -11.010;40692.520
600.916;30855.092;  -10.309;39982.422
601.498;31072.066;   -8.209;40318.617
602.079;31274.188;  -11.440;40670.609
602.660;32719.002;   -8.690;41450.898
603.241;34155.176;  -12.759;41137.738
603.823;32389.818;  -10.409;38868.797
604.404;32273.205;  -11.790;38182.785
604.985;30730.930;  -10.280;38078.047
605.566;31185.746;   -8.059;38056.633
606.147;31574.490;   -8.960;37020.418
606.728;31205.277;  -10.710;37883.359
607.309;30371.877;  -12.760;38748.273
607.890;28367.328;   -9.959;38850.230
608.471;26811.643;   -9.780;37457.918
609.051;28442.590;   -8.940;36066.457
609.632;31335.875;  -12.070;35991.074
610.213;33282.820;   -9.610;37402.641
610.794;33503.375;   -8.750;38383.363
611.374;32939.609;  -11.100;40562.387
611.955;33503.320;  -12.200;38533.727
612.536;33187.066;  -10.410;36951.789
613.116;33159.113;  -10.010;37197.891
613.697;32264.199;  -10.480;38411.125
614.277;30804.160;  -12.751;38673.938
614.858;30618.994;  -11.600;37075.863
615.438;29963.318;   -8.190;35092.906
616.019;28561.609;   -8.941;33666.301
616.599;29479.703;  -13.540;34189.023
617.179;29865.582;  -10.890;36952.047
617.760;30604.500;   -7.610;39582.574
618.340;30181.107;  -14.441;38943.977
618.920;29633.512;   -9.180;37594.156
619.500;29779.004;  -11.881;37866.938
620.080;31689.209;   -9.870;37869.043
620.660;31611.176;  -13.211;36868.617
621.241;30545.213;  -11.921;36352.309
621.821;29558.672;  -10.271;35459.520
622.401;29188.934;   -8.200;35207.414
622.980;30007.447;  -11.141;35980.422
623.560;31468.873;  -14.321;37351.328
624.140;31109.984;   -9.360;34388.582
624.720;27623.328;   -7.481;32368.764
625.300;24529.070;  -12.730;32638.629
625.880;29534.547;  -11.441;34599.035
626.459;32865.094;  -10.971;36831.738
627.039;34375.094;   -9.011;38299.098
627.619;34332.707;   -8.521;38289.574
628.198;35330.367;   -9.861;37220.695
628.778;35378.215;   -8.841;37632.563
629.357;34182.055;   -9.891;38003.012
629.937;31813.146;  -11.871;38402.039
630.516;30491.004;  -10.641;37868.801
631.096;32804.309;  -11.391;35760.410
631.675;34608.352;   -6.622;35225.219
632.254;32459.244;  -13.002;35130.289
632.834;30728.523;  -11.622;35794.570
633.413;32589.988;   -8.321;35788.922
633.992;30786.516;   -7.732;34532.863
634.571;29981.504;  -10.992;33590.113
635.151;31246.561;  -10.422;34943.863
635.730;31717.689;  -11.511;35352.523
636.309;30903.002;   -7.901;35366.605
636.888;29959.311;  -11.452;36165.637
637.467;29883.451;  -10.672;37515.902
638.046;29924.104;   -9.301;39288.695
638.625;30875.295;  -11.452;38279.699
639.204;32304.195;  -12.262;37741.598
639.782;31679.400;  -11.892;38364.551
640.361;30337.883;  -11.411;36740.621
640.940;27185.313;  -11.501;34950.082
641.519;27482.482;  -10.921;34137.398
642.097;30857.717;  -10.101;35654.258
642.676;31430.645;  -10.821;35637.957
643.255;33670.133;   -8.631;36567.074
643.833;36004.340;  -11.411;37809.434
644.412;37295.836;  -12.021;37337.293
644.990;36826.156;  -12.271;37018.531
645.569;35781.715;   -9.741;36518.469
646.147;34678.141;   -9.051;36186.430
646.726;32803.137;  -13.861;36267.688
647.304;32640.188;   -9.461;36647.625
647.882;31513.047;  -13.171;39286.742
648.461;31493.482;  -11.911;39157.703
649.039;32099.846;   -9.541;35412.883
649.617;34155.461;   -8.901;34744.918
650.195;32316.580;   -8.591;35403.098
650.773;30609.779;  -13.031;35053.797
651.352;29015.523;  -12.211;33756.816
651.930;26084.453;  -11.361;31868.773
652.508;23382.867;   -8.601;33121.551
653.086;26928.510;   -9.991;33564.793
653.663;31451.791;  -11.931;34054.668
654.241;33502.445;  -10.821;35693.309
654.819;34193.855;   -9.341;36422.906
655.397;31843.393;  -10.851;38213.484
655.975;29828.223;  -11.461;39507.625
656.553;30516.996;   -8.841;39498.223
657.130;29974.543;  -10.371;40395.480
657.708;28454.703;  -11.071;39242.020
658.286;28208.346;  -11.141;38920.020
658.863;30463.271;  -10.861;40202.898
659.441;36258.328;  -11.181;39677.938
660.018;37972.164;  -10.851;40413.355
660.596;36825.723;  -12.571;39931.414
661.173;37590.957;  -12.141;39604.531
661.750;34489.688;  -11.571;39700.070
662.328;31220.520;  -10.780;39292.809
662.905;30024.873;  -10.750;38235.648
663.482;27028.166;  -11.320;36212.305
664.060;25924.926;  -10.160;35944.945
664.637;31591.395;  -13.120;35170.785
665.214;34463.559;  -11.500;34197.523
665.791;32332.441;  -12.430;34549.520
666.368;29635.408;   -9.840;35118.578
666.945;28271.439;  -11.290;36019.418
667.522;28651.670;  -13.540;36048.438
668.099;29608.924;  -10.250;36243.914
668.676;28875.250;  -11.270;35958.875
669.253;28257.701;   -8.210;37384.730
669.830;26851.131;   -9.710;36779.629
670.407;26452.500;   -9.700;35231.289
670.984;26451.168;   -9.190;35544.270
671.560;25317.068;   -9.560;35466.867
672.137;24902.340;  -11.820;34280.863
672.714;27687.301;  -12.460;34632.863
673.290;32218.453;  -10.940;35135.422
673.867;33783.969;  -10.510;36114.480
674.443;31876.822;  -12.110;36152.859
675.020;31926.910;  -11.760;35327.238
675.596;32984.746;   -9.380;35795.176
676.173;32289.914;  -11.120;35430.355
676.749;31065.631;  -13.390;33549.516
677.326;29715.881;  -12.600;32210.012
677.902;28786.225;  -10.830;32068.871
678.478;28098.705;  -12.400;32583.891
679.054;29325.814;   -8.610;32088.928
679.631;30524.188;  -11.640;30978.848
680.207;31259.510;   -8.140;33160.887
680.783;31236.412;  -12.300;35570.363
681.359;30046.182;  -10.910;36125.184
681.935;29164.262;  -11.040;35240.922
682.511;29590.104;  -11.130;34429.961
683.087;29775.170;  -11.080;34463.680
683.663;31550.545;  -10.530;34648.898
684.239;31906.045;  -12.120;34546.457
684.815;30581.961;   -8.870;35586.375
685.390;29090.039;   -8.940;35821.895
685.966;28112.166;  -12.109;35085.871
686.542;26792.871;  -13.539;34198.230
687.118;26086.551;  -10.379;32847.707
687.693;27070.998;  -10.189;32794.027
688.269;26485.221;  -12.939;33072.367
688.844;24960.064;   -8.679;33141.664
689.420;25900.930;  -10.919;33965.742
689.995;26712.861;   -7.489;34655.523
690.571;26084.434;  -12.199;33576.742
691.146;26294.076;   -8.979;32657.219
691.722;27995.334;   -9.119;32526.979
692.297;28191.217;  -10.519;33014.617
692.872;28165.107;  -10.629;34012.254
693.448;28346.219;  -12.119;34237.434
694.023;27540.563;   -8.219;34142.672
694.598;25753.811;  -13.209;34132.031
695.173;24595.178;  -11.879;34205.250
695.748;25318.359;  -12.039;32882.488
696.323;26459.436;  -11.779;32864.906
696.898;26799.162;  -10.219;33170.004
697.473;28227.697;  -13.639;32432.984
698.048;28927.633;  -11.239;31649.303
698.623;30904.668;  -10.859;30778.141
699.198;33022.188;  -13.379;31140.119
699.773;33449.645;  -13.409;31764.299
700.348;32357.008;  -12.329;31780.816
700.922;32295.369;   -8.749;32046.375
701.497;32425.014;  -12.449;32603.574
702.072;30885.129;   -8.879;34799.871
702.646;28966.967;  -10.719;35793.172
703.221;28228.240;   -8.469;35201.590
703.795;28766.137;  -11.389;34764.527
704.370;27502.297;  -12.499;34307.367
704.944;26035.623;  -11.449;33509.887
705.519;26154.902;  -10.659;31388.584
706.093;25603.283;  -12.909;31340.104
706.668;25950.955;  -13.509;32630.281
707.242;26880.869;  -10.049;32728.779
707.816;26823.377;  -10.629;32947.238
708.390;26006.910;  -11.829;33277.855
708.965;24693.131;  -11.159;33834.336
709.539;25070.193;  -11.069;33709.273
710.113;24615.832;  -10.908;33044.313
710.687;22651.943;   -9.488;31953.992
711.261;23047.920;  -13.068;30505.949
711.835;25786.479;  -12.748;30262.369
712.409;28266.117;  -10.678;31254.447
712.983;27841.906;  -11.658;32754.986
713.557;27092.123;  -13.718;34018.824
714.131;27509.875;  -13.388;34579.625
714.704;29905.955;   -9.818;33890.262
715.278;31797.934;  -11.818;33531.102
715.852;31860.336;  -11.328;33601.660
716.425;32256.135;   -9.118;33515.117
716.999;32434.129;  -10.188;33185.555
717.573;31772.041;   -9.808;33905.996
718.146;31006.662;  -11.478;35199.293
718.720;29826.945;  -10.998;35060.551
719.293;28826.396;   -9.508;34973.230
719.867;29606.934;  -12.138;36394.449
720.440;29018.570;  -11.288;36663.008
721.013;31105.832;  -11.428;35102.426
721.587;32671.283;  -11.698;33985.266
722.160;33956.609;  -11.608;33524.965
722.733;34425.793;  -11.428;32987.043
723.306;31532.586;  -12.518;33066.301
723.880;30127.330;   -7.408;33399.500
724.453;29694.529;  -11.048;33468.297
725.026;28384.449;  -11.678;33816.637
725.599;26872.180;  -10.978;32797.996
726.172;25258.281;   -8.838;33187.434
726.745;24975.145;  -11.438;35136.613
727.318;26281.035;   -9.828;35751.730
727.891;26979.686;  -10.868;35890.430
728.463;27044.293;  -11.348;34822.090
729.036;26037.049;  -11.608;32895.086
729.609;25827.270;  -14.738;31823.225
730.182;26085.703;   -8.448;31445.283
730.754;26743.967;  -11.228;32373.223
731.327;26815.895;  -12.018;33676.820
731.900;28437.438;  -13.748;33417.000
732.472;29543.148;  -10.928;31978.498
733.045;29333.836;   -9.478;30368.777
733.617;27838.510;  -12.967;30574.215
734.190;27091.338;  -11.707;31280.975
734.762;26399.479;  -11.067;31674.412
735.334;25493.094;  -10.587;31247.291
735.907;24531.492;  -11.947;29876.211
736.479;24884.916;  -11.667;29808.488
737.051;26341.336;  -10.187;30233.547
737.623;26959.191;   -6.887;31469.086
738.195;28213.305;  -12.117;31784.225
738.768;30370.977;  -14.077;32120.523
739.340;29923.861;  -12.207;32094.342
739.912;27682.252;   -8.977;31312.680
740.484;26460.521;  -11.017;31946.238
741.056;28433.840;  -13.517;32984.059
741.628;30857.451;  -11.507;33897.715
742.199;31107.205;   -7.597;33213.016
742.771;30467.340;  -12.227;31369.113
743.343;29031.510;  -12.427;31865.473
743.915;27254.592;   -9.827;32388.631
744.487;26347.242;  -10.007;31079.568
745.058;25605.188;  -11.887;30570.107
745.630;24411.930;  -10.787;29970.127
746.201;23676.275;  -10.887;29186.766
746.773;24862.088;   -9.707;28805.723
747.344;25858.432;  -11.137;29591.223
747.916;25286.576;  -11.887;31412.201
748.487;24719.629;   -9.707;32194.898
749.059;24444.682;  -10.027;32533.719
749.630;23770.646;  -11.787;32158.518
750.201;22475.471;  -12.767;30855.395
750.773;20633.912;  -11.497;28622.555
751.344;21626.863;   -9.937;28405.732
751.915;21688.398;  -11.567;28461.551
752.486;19449.658;  -13.267;27842.850
753.057;18303.828;  -10.627;27845.008
753.628;18285.412;  -11.657;27728.107
754.199;20565.006;  -12.097;27381.086
754.770;22119.375;  -11.447;25882.203
755.341;22575.332;  -11.997;25886.184
755.912;20987.154;  -10.207;26050.861
756.483;19112.541;  -10.937;26798.779
757.054;19618.650;  -11.527;27048.238
757.625;20120.166;  -12.886;26294.838
758.195;19767.008;  -11.226;26142.076
758.766;20161.715;  -12.366;26392.234
759.337;18795.764;  -11.946;26334.594
759.907;18214.633;  -13.856;27579.652
760.478;19442.021;   -9.606;28352.770
761.048;20915.152;  -11.606;27325.088
761.619;21645.793;  -11.036;26460.428
762.189;20148.891;  -12.206;26029.826
762.760;19244.963;   -9.666;26430.145
763.330;20244.857;   -9.796;26670.902
763.900;20087.119;  -10.896;26603.021
764.471;19621.264;  -11.726;25542.740
765.041;20512.840;   -9.656;24358.459
765.611;21098.682;  -11.276;23991.297
766.181;20489.764;  -12.116;24470.236
766.751;20047.855;  -12.376;24845.975
767.321;20172.699;  -11.626;24533.633
767.891;19989.061;  -10.426;24916.492
768.461;18459.820;  -13.456;24776.771
769.031;16122.896;  -11.616;24757.988
769.601;15166.942;  -11.356;24181.088
770.171;15088.229;  -11.586;23670.387
770.741;15598.506;  -12.696;22960.045
771.311;17261.945;  -10.226;22917.523
771.880;17966.797;  -11.146;23562.941
772.450;18366.307;  -11.716;24216.500
773.020;18251.037;  -13.226;24140.398
773.589;17080.389;  -12.586;24414.857
774.159;16676.262;  -10.246;23858.717
774.729;16047.795;  -11.586;22942.135
775.298;15838.499;  -15.926;22324.033
775.867;15884.856;  -10.426;21140.313
776.437;15599.102;  -11.416;20838.092
777.006;13809.878;  -12.766;20599.510
777.576;13685.426;  -13.666;20508.809
778.145;15048.318;  -10.066;20732.947
778.714;15366.228;  -10.276;21062.465
779.283;14912.425;  -12.086;20949.664
779.853;14774.611;  -14.016;20508.623
780.422;14606.891;  -12.376;20649.082
780.991;13885.281;   -9.246;21527.520
781.560;13633.656;   -9.775;22632.658
782.129;13927.896;  -12.495;23048.277
782.698;13989.179;  -11.775;23438.555
783.267;13877.688;  -10.065;23267.734
783.836;14692.048;  -12.455;22415.133
784.404;15199.195;  -13.385;20443.152
784.973;15107.190;  -11.045;19699.150
785.542;14625.459;   -9.505;19763.828
786.111;13892.698;   -9.385;20341.408
786.679;13659.484;  -13.475;20207.967
787.248;13594.046;  -11.245;19516.465
787.817;12107.529;  -12.485;18900.363
788.385;10533.093;  -11.165;17879.121
788.954;11023.724;  -11.755;17658.301
789.522;12042.245;   -9.625;17788.879
790.090;12391.631;   -9.665;18118.277
790.659;11794.780;   -9.295;18338.736
791.227;11838.818;  -12.175;18508.615
791.795;12680.301;  -12.145;17898.254
792.364;12673.721;  -11.575;17295.133
792.932;11982.801;  -11.085;16822.051
793.500;11530.098;  -11.345;17040.148
794.068;11159.869;  -12.565;17179.787
794.636;11721.236;  -12.105;16664.246
795.204;12837.233;  -11.995;16524.545
795.772;12844.150;  -12.615;17274.564
796.340;12247.308;  -12.425;17891.002
796.908;11800.701;  -11.455;17648.561
797.476;10954.746;  -12.165;17064.080
798.044; 9907.194;  -15.795;16672.777
798.612; 9446.905;  -10.985;17023.996
799.180;10020.338;  -12.055;16561.615
799.747;10490.305;  -12.525;15962.773
800.315; 9576.101;  -14.765;15296.992
800.883; 8344.852;  -12.435;14801.771
801.450; 8216.053;  -11.295;14534.430
802.018; 8665.722;  -11.185;14173.248
802.585; 8848.967;  -11.625;14029.547
803.153; 8182.324;  -10.665;13836.846
803.720; 7700.188;  -10.275;13567.324
804.287; 7879.662;  -12.865;13360.622
804.855; 8137.097;  -12.324;13681.981
805.422; 8127.123;  -11.574;13536.560
805.989; 7782.468;  -11.004;13355.958
806.556; 7984.237;  -12.214;13747.896
807.124; 8364.692;  -13.304;13987.376
807.691; 8259.258;  -12.034;14038.674
808.258; 8023.907;  -11.014;14120.152
808.825; 7901.074;  -11.804;13860.111
809.392; 7691.654;  -11.544;13268.790
809.959; 7524.300;  -14.954;12680.389
810.526; 7873.280;  -10.214;12427.308
811.093; 7959.240;  -10.754;12030.105
811.659; 7520.389;  -12.194;11653.664
812.226; 6719.981;   -9.194;11637.183
812.793; 6551.759;   -9.644;11611.521
813.360; 7235.797;  -11.544;11885.181
813.926; 8249.116;  -12.814;12770.539
814.493; 8332.345;  -11.524;12677.638
815.060; 8081.541;  -12.254;11974.336
815.626; 7858.206;  -12.114;11594.715
816.193; 7334.602;  -11.994;11579.474
816.759; 6814.139;  -11.464;11666.972
817.325; 6361.045;  -10.444;11325.530
817.892; 6044.782;  -11.124;11105.369
818.458; 6080.499;  -11.864;10843.928
819.024; 6606.830;  -10.634;10714.406
819.591; 6798.618;  -10.554;10469.165
820.157; 6841.558;  -13.334;10235.523
820.723; 6861.733;  -13.044;10847.563
821.289; 6738.573;   -9.664;11040.980
821.855; 6797.729;  -10.994;10357.100
822.421; 7015.383;  -11.784; 9978.918
822.987; 7150.458;  -12.554; 9754.177
823.553; 7162.565;  -12.554;10065.755
824.119; 6821.304;   -8.544;10036.294
824.685; 6059.203;  -12.144;10029.192
825.251; 5727.851;  -12.754;10199.230
825.816; 5439.688;  -11.354; 9820.189
826.382; 5077.671;  -11.004; 9297.248
826.948; 5039.063;  -11.004; 9381.347
827.513; 5251.210;  -12.474; 9450.726
828.079; 5374.469;  -13.084; 9472.444
828.645; 5502.503;  -10.813; 9292.643
829.210; 5327.675;  -11.593; 9065.341
829.776; 5345.708;  -12.633; 9132.620
830.341; 5652.144;  -10.473; 9092.878
830.906; 5565.178;   -8.763; 9078.557
831.472; 4879.912;  -13.453; 8534.535
832.037; 3962.474;  -12.173; 8677.874
832.602; 3674.507;  -14.093; 8628.692
833.167; 4016.270;  -13.593; 8879.031
833.733; 4611.562;  -10.793; 9189.790
834.298; 4988.035;  -14.783; 9052.608
834.863; 4651.630;  -11.023; 8895.087
835.428; 4311.230;  -11.113; 8824.266
835.993; 4622.093;   -9.983; 8845.385
836.558; 4874.488;  -13.003; 8888.563
837.123; 4775.604;  -10.733; 8966.582
837.688; 4422.158;   -9.683; 8617.860
838.253; 4191.853;  -12.253; 8590.699
838.817; 4366.293;  -11.643; 8443.797
839.382; 4589.179;  -11.953; 8799.356
839.947; 4580.492;  -11.443; 8810.595
840.511; 4455.470;  -10.843; 8796.394
841.076; 4462.002;  -13.533; 8347.231
841.641; 4593.488;  -11.743; 8224.330
842.205; 4442.818;  -10.013; 8223.349
842.770; 4270.599;  -11.023; 8622.107
843.334; 4256.042;  -14.273; 8410.386
843.898; 4412.967;  -11.323; 8337.465
844.463; 4790.153;  -10.263; 8506.283
845.027; 4963.485;  -10.353; 8280.962
845.591; 4895.082;  -12.163; 8231.141
846.156; 4729.685;  -12.263; 7969.179
846.720; 4744.287;  -11.553; 7768.278
847.284; 4659.978;  -12.393; 7630.957
847.848; 4038.334;  -12.623; 7472.395
848.412; 3451.023;  -11.863; 7437.394
848.976; 3355.923;  -10.203; 7674.592
849.540; 3467.643;  -10.603; 7836.011
850.104; 3614.971;  -12.423; 7913.669
850.668; 3689.029;  -14.613; 7694.508
851.232; 3619.431;  -12.873; 7756.887
851.796; 3631.866;  -14.192; 7926.545
852.359; 3766.403;  -13.652; 7827.844
852.923; 3756.325;  -11.402; 7641.163
853.487; 3642.838;  -12.022; 7342.501
854.050; 3521.515;  -15.202; 7042.820
854.614; 3523.562;  -14.592; 7151.338
855.177; 3491.469;  -12.572; 7105.077
855.741; 3517.572;   -9.932; 6989.675
856.304; 3687.361;  -12.192; 6596.634
856.868; 3743.119;  -13.462; 6356.272
857.431; 3696.233;  -11.542; 6468.571
857.995; 3714.277;  -12.062; 6373.210
858.558; 3489.434;  -11.142; 6324.448
859.121; 3183.897;  -11.742; 6408.327
859.684; 2999.473;  -10.332; 6347.886
860.247; 2961.674;  -11.962; 6321.264
860.810; 3086.178;  -12.332; 6301.903
861.374; 3114.394;  -10.292; 6607.881
861.937; 3030.636;  -12.062; 6408.200
862.500; 3123.676;  -11.702; 6572.639
863.062; 3319.036;  -13.852; 6387.297
863.625; 3429.799;  -12.972; 6190.836
864.188; 3328.866;  -10.292; 5807.254
864.751; 3169.489;  -12.382; 5682.413
865.314; 2974.034;  -13.232; 5547.492
865.876; 2748.344;  -12.772; 5500.150
866.439; 2560.584;  -11.952; 5415.909
867.002; 2526.038;   -9.332; 5501.567
867.564; 2745.967;  -11.712; 5413.946
868.127; 2939.741;  -12.012; 5160.325
868.689; 2746.685;  -11.882; 5133.183
869.252; 2419.345;  -11.572; 5252.382
869.814; 2265.724;  -10.692; 5297.141
870.377; 2343.689;  -12.392; 5390.919
870.939; 2480.999;  -10.582; 5599.898
871.501; 2528.197;  -12.782; 5248.336
872.063; 2495.621;  -15.612; 4854.235
872.626; 2476.264;  -13.922; 4817.074
873.188; 2361.277;  -13.832; 4987.732
873.750; 2206.869;  -10.962; 4868.651
874.312; 2230.399;  -11.022; 4779.330
874.874; 2270.125;  -13.152; 4866.348
875.436; 2245.711;  -13.401; 4718.887
875.998; 2204.139;   -8.891; 4660.005
876.560; 2145.717;  -12.591; 4462.964
877.122; 2078.352;  -14.531; 4145.042
877.683; 1996.097;  -10.781; 4056.481
878.245; 1935.186;  -14.281; 3950.740
878.807; 1944.314;  -10.311; 4058.958
879.369; 1883.041;  -13.201; 3954.677
879.930; 1835.122;  -12.061; 3941.495
880.492; 1844.337;   -9.181; 4067.014
881.053; 1866.149;  -12.051; 3859.633
881.615; 1850.341;  -11.501; 3776.071
882.176; 1808.596;  -12.221; 3734.750
882.738; 1762.696;   -8.931; 3678.489
883.299; 1717.410;  -13.571; 3405.407
883.860; 1750.483;  -12.331; 3351.106
884.422; 1562.531;  -10.201; 3394.044
884.983; 1145.278;  -12.521; 3166.443
885.544;  814.077;  -12.291; 3189.802
886.105;  680.102;  -12.991; 3160.360
886.666;  664.926;  -12.901; 3093.059
887.227;  688.997;  -12.061; 2941.957
887.788;  714.714;  -11.641; 2974.836
888.349;  733.272;  -14.691; 2721.214
888.910;  739.536;   -9.681; 2696.493
889.471;  752.066;   -9.971; 2560.172
890.032;  760.555;  -13.151; 2558.190
890.593;  756.823;  -12.051; 2567.669
891.153;  738.014;  -12.841; 2460.307
891.714;  723.457;  -13.561; 2372.046
892.275;  711.675;  -12.401; 2309.505
892.835;  687.261;  -13.191; 2382.543
893.396;  646.808;  -12.551; 2295.502
893.956;  634.479;  -11.981; 2162.420
894.517;  640.314;  -12.221; 2125.439
895.077;  623.200;  -12.021; 2086.978
895.638;  564.839;  -10.891; 2126.316
896.198;  510.547;  -13.171; 1838.275
896.758;  472.756;  -11.891; 1892.813
897.319;  431.381;  -12.491; 1792.232
897.879;  412.368;  -12.401; 1762.751
898.439;  388.235;  -13.431; 1661.149
898.999;  369.688;  -11.340; 1781.468
899.559;  362.951;  -13.930; 1703.347
900.119;  348.751;  -13.730; 1537.525
900.679;  332.880;   -9.210; 1638.384
901.239;  319.113;  -10.860; 1527.902
901.799;  300.247;  -11.450; 1456.441
902.359;  278.658;  -13.800; 1357.140
902.919;  269.756;  -12.130; 1331.118
903.479;  267.412;  -12.650; 1317.257
904.038;  257.872;  -16.110; 1262.595
904.598;  242.836;  -13.690; 1152.034
905.158;  230.312;  -10.290; 1240.893
905.717;  222.001;  -10.670; 1233.691
906.277;  219.920;  -14.040; 1217.330
906.836;  219.606;  -13.510; 1222.408
907.396;  212.829;  -11.530; 1193.047
907.955;  202.529;  -13.190; 1182.526
908.515;  189.379;  -12.950; 1099.364
909.074;  178.656;  -12.390; 1092.863
909.633;  173.182;  -10.340; 1069.121
910.192;  171.340;  -11.170; 1196.460
910.752;  168.631;  -14.200; 1029.960
911.311;  165.738;  -13.810; 1009.780
911.870;  164.283;  -12.750;  971.460
912.429;  163.915;  -12.380; 1094.080
912.988;  161.837;  -11.930; 1081.060
913.547;  157.211;  -10.990;  940.380
914.106;  154.597;  -11.200;  999.420
914.665;  152.608;  -13.150;  984.020
915.224;  150.574;  -13.310; 1035.760
915.782;  147.729;  -13.340;  922.560
916.341;  148.265;  -10.710; 1049.840
916.900;  147.174;  -12.980;  925.260
917.458;  144.595;  -13.060;  884.220
918.017;  142.392;  -10.900;  942.600
918.576;  142.005;  -11.630;  904.440
919.134;  141.965;  -12.860;  837.980
919.693;  141.514;  -15.160;  893.060
920.251;  141.382;  -13.470;  876.500
920.809;  140.673;  -13.700;  839.580
921.368;  140.786;  -13.420;  885.360
921.926;  141.669;  -14.710;  842.940
922.484;  141.530;  -12.560;  903.360
923.042;  143.118;  -11.930;  880.340
923.601;  143.716;  -10.270;  998.680
924.159;  140.215;  -12.960;  935.560
924.717;  138.800;  -13.040;  841.080
925.275;  139.615;  -12.560;  903.240
925.833;  141.604;  -13.040;  779.320
926.391;  144.278;  -13.360;  938.380
926.949;  143.177;  -13.940;  857.680
927.506;  143.957;   -9.400;  903.500
928.064;  143.024;  -10.940;  877.580
928.622;  142.027;  -13.180;  880.100
929.180;  142.522;  -12.730;  814.180
929.737;  142.842;  -12.840;  808.540
930.295;  147.495;  -11.810;  928.480
930.853;  152.395;  -13.650;  849.100
931.410;  155.152;  -13.580;  821.120
931.968;  157.744;  -12.020;  940.660
932.525;  158.341;  -13.320;  909.380
933.082;  156.584;  -13.800;  811.440
933.640;  160.184;  -11.380;  925.900
934.197;  162.975;  -11.480;  886.360
934.754;  164.527;  -13.220;  897.780
935.312;  163.232;  -14.950;  863.340
935.869;  161.417;  -10.940; 1012.980
936.426;  156.195;  -12.100;  872.800
936.983;  156.300;  -12.930;  889.020
937.540;  157.009;  -14.250;  838.280
938.097;  161.755;  -12.600;  940.120
938.654;  168.376;  -11.260;  898.860
939.211;  172.392;  -13.020;  952.480
939.768;  173.929;  -15.760;  915.420
940.324;  177.976;  -13.920;  904.200
940.881;  177.330;  -11.620;  878.500
941.438;  173.655;   -9.870; 1021.200
941.995;  169.702;  -13.920;  992.560
942.551;  166.320;  -12.830;  875.620
943.108;  166.913;  -11.980;  937.920
943.664;  170.142;  -13.740;  869.340
944.221;  176.791;  -12.670; 1088.140
944.777;  177.144;  -13.250;  869.680
945.334;  173.628;  -13.000;  884.840
945.890;  172.306;  -13.020;  946.480
946.446;  171.674;  -13.880;  947.020
947.003;  172.623;  -12.660;  964.940
947.559;  173.284;   -8.730; 1063.040
948.115;  172.424;  -11.960; 1026.540
948.671;  167.772;  -12.360;  967.300
949.227;  163.498;  -12.700;  859.560
949.783;  160.100;  -13.450;  858.900
950.339;  159.010;  -10.620;  991.000
950.895;  156.908;  -14.770; 1023.840
951.451;  152.913;  -13.650;  925.280
952.007;  155.936;  -11.180;  998.540
952.563;  154.258;  -11.680;  937.780
953.118;  152.892;  -13.280;  904.940
953.674;  153.408;  -12.510;  935.780
954.230;  153.388;  -12.220;  949.640
954.785;  150.428;  -12.190;  936.640
955.341;  146.398;  -12.270;  998.160
955.897;  143.348;  -14.900;  834.660
956.452;  145.495;  -12.520;  953.840
957.008;  145.427;   -9.410; 1083.640
957.563;  142.378;  -11.280; 1009.540
958.118;  139.533;  -13.470;  877.700
958.674;  139.838;  -12.190;  946.780
959.229;  140.497;  -12.760; 1013.980
959.784;  143.504;  -15.710;  832.400
960.339;  149.568;  -12.540; 1001.280
960.894;  149.191;  -11.680;  963.760
961.449;  145.920;  -11.410;  859.960
962.004;  144.210;  -10.430; 1212.840
962.559;  136.948;  -14.040;  860.140
963.114;  130.996;  -14.270;  742.480
963.669;  132.001;  -11.320;  915.500
964.224;  131.046;  -14.620;  874.340
964.779;  129.088;  -14.150;  828.420
965.334;  130.475;  -10.850; 1017.860
965.888;  128.824;  -14.530;  875.360
966.443;  131.054;  -13.520;  972.380
966.998;  128.494;  -13.370;  819.460
967.552;  127.392;   -9.960;  908.380
968.107;  124.068;  -12.360;  868.300
968.661;  124.515;  -12.270;  922.440
969.216;  122.313;  -12.140;  856.280
969.770;  122.952;  -11.860;  917.200
970.324;  122.666;  -12.170;  923.140
970.879;  121.455;  -14.160;  947.180
971.433;  119.315;  -12.940;  952.720
971.987;  116.181;  -10.180;  895.340
972.541;  115.546;  -12.130;  917.100
973.095;  114.736;  -14.980; 1009.460
973.649;  112.408;  -14.480;  809.480
974.203;  114.824;  -13.530;  829.040
974.757;  116.847;  -12.060;  855.220
975.311;  114.904;  -13.240;  872.600
975.865;  112.767;  -12.550;  881.820
976.419;  112.090;  -13.180;  857.400
976.973;  110.634;  -14.100;  849.620
977.526;  110.992;  -13.330;  949.920
978.080;  105.720;  -15.390;  796.780
978.634;  106.166;  -11.670;  921.320
979.187;  102.265;  -10.640;  905.400
979.741;  102.308;  -13.330; 1018.380
980.294;  101.090;  -14.480;  789.160
980.848;   99.515;  -13.420;  717.220
981.401;   98.091;  -12.360;  816.540
981.955;   95.434;  -12.480;  844.300
982.508;   89.915;  -14.000;  746.340
983.061;   91.564;  -10.440;  915.260
983.615;   87.061;  -14.340;  798.800
984.168;   84.803;  -14.950;  770.080
984.721;   85.039;  -13.270;  880.760
985.274;   83.163;  -12.240;  867.500
985.827;   81.155;  -12.720;  834.220
986.380;   77.384;  -14.920;  721.340
986.933;   77.559;  -12.860;  864.800
987.486;   76.506;  -10.440;  861.920
988.039;   74.829;  -11.820;  863.100
988.591;   74.001;  -13.760;  893.260
989.144;   71.662;  -14.080;  737.260
989.697;   71.837;  -13.440;  758.740
990.250;   73.006;  -12.050;  858.100
990.802;   70.586;  -14.550;  755.860
991.355;   71.055;  -10.770;  974.880
991.907;   69.585;  -11.710;  864.320
992.460;   68.114;  -12.650;  753.760
993.012;   67.124;  -13.860;  749.540
993.565;   64.675;  -14.310;  711.360
994.117;   64.932;   -9.920;  950.780
994.669;   61.508;  -13.420;  701.320
995.221;   60.117;  -14.200;  791.920
995.774;   59.653;  -13.400;  787.580
996.326;   58.650;  -11.850;  740.220
996.878;   59.253;  -12.230;  838.420
997.430;   56.474;  -14.260;  699.860
997.982;   56.078;  -11.430;  750.140
998.534;   56.309;  -11.590;  739.060
999.086;   55.434;  -11.960;  738.220
999.638;   54.649;  -13.640;  661.380
1000.190;   52.961;  -13.660;  699.320
1000.741;   53.084;   -9.980;  742.700
1001.293;   52.522;  -11.860;  686.020
1001.845;   50.914;  -14.280;  676.640
1002.396;   51.415;  -12.270;  743.400
1002.948;   51.004;  -13.670;  737.400
1003.500;   49.606;  -12.010;  723.780
1004.051;   50.888;  -11.890;  907.580
1004.603;   48.892;  -11.220;  791.820
1005.154;   45.497;  -13.210;  608.980
1005.705;   45.495;  -11.850;  723.960
1006.257;   44.762;  -13.670;  707.220
1006.808;   44.014;  -12.060;  685.460
1007.359;   43.892;  -10.250;  763.240
1007.910;   41.873;  -13.440;  646.640
1008.461;   41.624;  -13.170;  732.940
1009.013;   39.748;  -14.590;  588.340
1009.564;   41.805;  -12.100;  793.520
1010.115;   39.482;  -14.000;  597.040
1010.665;   39.984;  -15.020;  602.160
1011.216;   39.238;  -12.560;  667.920
1011.767;   38.903;  -11.330;  697.920
1012.318;   39.944;  -11.450;  736.980
1012.869;   37.924;  -11.000;  679.000
1013.419;   37.917;  -11.760;  603.120
1013.970;   37.853;  -11.800;  666.640
1014.521;   37.381;  -14.750;  620.620
1015.071;   37.186;  -14.430;  670.380
1015.622;   36.874;  -14.170;  635.460
1016.172;   36.081;  -11.700;  596.820
1016.723;   35.632;  -13.230;  614.380
1017.273;   35.651;  -16.120;  604.160
1017.823;   36.031;  -13.360;  650.340
1018.374;   35.256;  -13.710;  611.760
1018.924;   35.367;  -11.050;  716.880
1019.474;   35.493;  -14.120;  718.880
1020.024;   34.433;  -12.990;  657.580
1020.574;   35.200;  -12.010;  726.160
1021.124;   34.880;  -12.080;  673.580
1021.674;   32.564;  -15.860;  559.120
1022.224;   34.226;  -11.710;  708.940
1022.774;   33.804;  -13.030;  668.820
1023.324;   34.853;  -11.000;  753.520
1023.874;   35.159;  -13.270;  875.760
1024.423;   32.682;  -14.570;  613.700
1024.973;   32.494;  -12.620;  610.760
1025.523;   31.698;  -12.630;  620.960
1026.072;   31.709;  -14.110;  606.420
1026.622;   31.641;  -15.390;  675.740
1027.172;   32.585;   -9.090;  715.660
1027.721;   30.897;  -12.250;  601.220
1028.270;   30.872;  -15.590;  663.400
1028.820;   30.746;  -13.840;  638.080
1029.369;   30.045;  -13.170;  612.700
1029.918;   30.682;  -14.080;  649.840
1030.468;   30.198;  -13.860;  564.780
1031.017;   30.234;  -12.970;  634.800
1031.566;   29.076;  -12.320;  608.900
1032.115;   30.859;  -13.140;  694.500
1032.664;   28.663;  -14.560;  596.480
1033.213;   29.395;  -11.620;  735.420
1033.762;   29.931;  -13.190;  635.620
1034.311;   28.924;  -13.460;  677.220
1034.860;   29.498;  -15.770;  691.000
1035.408;   28.687;  -13.100;  722.720
1035.957;   29.131;  -12.880;  719.540
1036.506;   27.142;  -13.640;  530.800
1037.055;   29.971;  -12.420;  844.320
1037.603;   28.397;  -13.740;  664.000
1038.152;   26.079;  -13.840;  534.760
1038.700;   26.719;  -10.770;  585.740
1039.249;   27.337;  -13.520;  681.220
1039.797;   27.334;  -13.060;  633.360
1040.345;   26.857;  -11.760;  705.420
1040.894;   26.691;  -10.790;  625.300
1041.442;   26.322;  -15.420;  632.200
1041.990;   25.214;  -14.550;  559.160
1042.538;   25.334;  -15.620;  536.180
1043.087;   25.207;  -14.940;  570.860
1043.635;   26.780;  -12.100;  670.500
1044.183;   25.045;  -13.200;  586.400
1044.731;   25.197;  -11.630;  576.000
1045.279;   25.197;  -14.200;  674.920
1045.827;   27.234;  -12.510;  892.400
1046.374;   23.401;  -14.960;  515.420
1046.922;   23.793;  -11.850;  590.580
1047.470;   24.904;  -13.770;  691.300
1048.018;   24.365;  -15.380;  647.960
1048.565;   25.068;  -14.010;  708.600
1049.113;   23.044;  -14.620;  557.000
1049.660;   23.472;  -14.940;  629.660
1050.208;   24.625;  -14.540;  675.640
1050.755;   23.332;  -13.710;  606.580
1051.303;   23.690;  -11.880;  686.820
1051.850;   23.541;  -12.160;  635.120
1052.397;   21.164;  -15.110;  473.960
1052.945;   21.386;  -14.770;  617.760
1053.492;   23.086;  -12.320;  741.840
1054.039;   23.667;  -13.290;  720.180
1054.586;   22.293;  -15.210;  557.240
1055.133;   22.531;  -12.920;  693.140
1055.680;   22.534;  -12.610;  646.620
1056.227;   21.981;  -12.620;  542.780
1056.774;   23.670;  -13.010;  794.980
1057.321;   21.195;  -16.180;  523.260
1057.868;   21.181;  -11.230;  651.320
1058.415;   21.888;  -10.890;  651.980
1058.961;   21.524;  -12.530;  678.940
1059.508;   21.576;  -14.120;  643.820
1060.055;   21.272;  -13.340;  581.780
1060.601;   21.283;  -12.920;  624.300
1061.148;   20.710;  -14.430;  616.820
1061.694;   19.613;  -14.140;  592.580
1062.241;   20.269;  -12.550;  596.320
1062.787;   20.906;  -13.370;  663.140
1063.334;   22.112;  -12.260;  808.560
1063.880;   19.842;  -10.800;  668.360
1064.426;   20.324;   -9.920;  706.820
1064.972;   19.464;  -12.970;  601.340
1065.518;   18.023;  -14.440;  566.640
1066.065;   20.325;  -12.680;  624.460
1066.611;   18.163;  -13.520;  598.800
1067.157;   19.417;  -11.100;  641.860
1067.703;   18.979;  -14.100;  668.480
1068.249;   19.136;  -13.750;  605.220
1068.794;   18.833;  -11.070;  626.880
1069.340;   18.299;  -13.210;  578.960
1069.886;   18.744;  -14.850;  590.700
1070.432;   17.168;  -14.580;  541.720
1070.977;   16.501;  -12.930;  601.080
1071.523;   17.819;  -11.970;  573.060
1072.068;   17.986;  -13.730;  582.000
1072.614;   16.697;  -14.550;  527.760
1073.160;   18.632;  -13.690;  687.040
1073.705;   16.189;  -14.780;  572.520
1074.250;   17.380;  -15.430;  559.900
1074.796;   17.240;  -11.620;  655.160
1075.341;   17.939;  -11.580;  664.100
1075.886;   17.647;  -13.190;  594.240
1076.431;   17.656;  -13.630;  649.880
1076.976;   16.724;  -11.670;  639.220
1077.521;   16.057;  -11.600;  583.080
1078.067;   15.963;  -13.920;  579.400
1078.612;   15.959;  -12.910;  661.620
1079.156;   15.848;  -15.340;  601.540
1079.701;   15.740;  -12.560;  693.260
1080.246;   16.795;  -12.490;  696.300
1080.791;   16.132;  -14.550;  625.020
1081.336;   16.164;  -15.210;  659.320
1081.880;   15.836;  -11.280;  649.680
1082.425;   15.375;  -12.830;  573.480
1082.970;   16.664;  -11.680;  717.040
1083.514;   14.655;  -15.500;  597.000
1084.059;   14.806;  -11.770;  586.720
1084.603;   13.842;  -13.480;  565.840
1085.147;   14.883;  -13.940;  645.220
1085.692;   14.879;  -13.170;  716.800
1086.236;   12.947;  -15.740;  503.140
1086.780;   15.770;  -10.750;  751.440
1087.325;   14.620;  -14.900;  654.620
1087.869;   14.041;  -15.160;  610.700
1088.413;   15.380;  -11.030;  705.040
1088.957;   12.567;  -15.210;  543.400
1089.501;   15.608;  -12.310;  766.640
1090.045;   14.333;  -12.790;  726.480
1090.589;   12.459;  -14.040;  569.920
1091.133;   13.695;  -12.800;  673.340
1091.676;   13.455;  -13.600;  591.940
1092.220;   12.760;  -12.960;  600.920
1092.764;   14.212;  -10.830;  706.960
1093.307;   13.452;  -12.390;  673.780
1093.851;   11.593;  -15.850;  556.540
1094.395;   13.073;  -12.980;  683.140
1094.938;   12.408;  -13.670;  632.520
1095.482;   12.441;  -12.740;  559.800
1096.025;   13.821;  -13.340;  710.880
1096.568;   13.648;  -10.500;  779.280
1097.112;   10.240;  -13.500;  508.180
1097.655;   11.785;  -13.060;  603.000
1098.198;   10.193;  -13.240;  600.180
1098.741;   10.347;  -15.490;  612.860
1099.285;   12.317;  -13.410;  657.300
1099.828;    9.974;  -15.640;  439.400
1100.371;   11.932;  -13.980;  608.160
1100.914;   11.057;  -13.990;  682.660
1101.457;   11.465;  -15.030;  679.900
1101.999;   10.313;  -12.480;  584.680
1102.542;   11.250;  -12.410;  641.440
1103.085;   10.571;  -14.730;  658.500
1103.628;   11.034;  -12.190;  762.060
1104.170;   10.263;  -12.360;  588.280
1104.713;   11.253;  -13.350;  646.700
1105.256;    9.741;  -14.930;  557.440
1105.798;    8.727;  -15.150;  499.980
1106.341;   12.301;  -13.230;  728.900
1106.883;    9.852;  -14.680;  521.340
1107.425;    9.604;  -14.810;  668.180
1107.968;    9.600;  -12.940;  612.380
1108.510;   11.328;  -10.550;  684.960
1109.052;    8.501;  -15.640;  612.620
1109.594;    8.762;  -14.440;  554.440
1110.136;    9.931;  -11.380;  643.220
1110.679;    9.545;  -13.090;  633.080
1111.221;    9.814;  -14.230;  604.460
1111.763;    7.911;  -14.260;  559.220
1112.304;    7.965;  -14.510;  547.140
1112.846;    8.780;  -14.700;  666.240
1113.388;   12.241;  -12.270;  942.180
1113.930;    8.367;  -13.340;  694.200
1114.472;    7.587;  -12.560;  606.540
1115.013;    6.956;  -14.280;  551.280
1115.555;    7.117;  -14.010;  587.100
1116.097;    7.175;  -14.730;  579.480
1116.638;    7.764;  -12.160;  684.600
1117.180;    8.633;  -14.320;  667.740
1117.721;    7.426;  -15.730;  568.580
1118.262;    8.208;  -13.480;  677.960
1118.804;    8.189;  -11.530;  637.340
1119.345;    7.127;  -13.540;  578.400
1119.886;    8.479;  -14.470;  704.040
1120.427;    6.902;  -13.030;  589.020
1120.969;    6.777;  -13.150;  597.920
1121.510;    6.866;  -13.940;  563.060
1122.051;    7.419;  -12.310;  723.580
1122.592;    5.952;  -13.870;  655.420
1123.133;    5.466;  -12.890;  547.940
1123.673;    7.080;  -13.300;  706.480
1124.214;    5.848;  -14.000;  612.460
1124.755;    7.074;  -13.210;  639.460
1125.296;    6.246;  -13.450;  627.320
1125.836;    7.394;  -12.610;  691.500
1126.377;    6.319;  -15.840;  599.660
1126.918;    6.931;  -11.830;  614.980
1127.458;    5.702;  -11.830;  622.220
1127.999;    6.772;  -11.490;  656.980
1128.539;    6.380;  -12.900;  694.240
1129.079;    5.136;  -14.910;  632.720
1129.620;    4.665;  -12.920;  558.100
1130.160;    4.918;  -14.640;  539.480
1130.700;    5.698;  -13.270;  640.840
1131.240;    5.835;  -14.110;  643.700
1131.781;    5.391;  -13.130;  619.680
1132.321;    5.393;  -15.220;  599.120
1132.861;    4.028;  -15.670;  564.200
1133.401;    3.983;  -13.970;  593.940
1133.941;    4.233;  -13.740;  626.280
1134.481;    3.697;  -13.200;  597.580
1135.020;    3.222;  -14.830;  609.160
1135.560;    5.013;  -14.590;  674.940
1136.100;    3.120;  -13.730;  501.160
1136.640;    3.468;  -15.240;  510.480
1137.179;    3.786;  -14.710;  537.960
1137.719;    3.844;  -14.090;  605.400
1138.258;    3.669;  -12.470;  587.360
1138.798;    4.511;  -12.580;  663.780
1139.337;    3.204;  -16.480;  482.840
1139.877;    3.961;  -13.970;  642.360
1140.416;    6.625;   -9.870;  878.060
1140.955;    3.224;  -14.860;  535.380
1141.494;    3.661;  -14.530;  669.280
1142.034;    3.240;  -13.940;  583.520
1142.573;    4.382;  -11.160;  646.280
1143.112;    2.598;  -15.050;  553.480
1143.651;    2.961;  -15.390;  536.480
1144.190;    3.437;  -12.990;  691.640
1144.729;    3.007;  -12.220;  607.420
1145.267;    3.608;  -14.020;  584.900
1145.806;    3.560;  -12.740;  637.040
1146.345;    2.051;  -14.810;  635.020
1146.884;    2.599;  -12.920;  622.500
1147.422;    2.592;  -13.930;  533.060
1147.961;    4.031;  -11.830;  708.460
1148.500;    3.380;  -12.710;  669.720
1149.038;    3.753;  -14.420;  632.500
1149.577;    3.482;  -13.920;  698.640
1150.115;    1.097;  -17.050;  452.280
1150.653;    2.157;  -14.890;  607.340
1151.192;    2.806;  -15.270;  552.920
1151.730;    2.368;  -13.160;  652.560
1152.268;    1.682;  -15.430;  589.520
1152.806;    1.966;  -15.880;  571.180
1153.344;    1.076;  -13.240;  577.640
1153.882;    2.269;  -13.010;  600.060
1154.421;   -0.052;  -16.180;  470.620
1154.958;    0.809;  -13.880;  595.240
1155.496;    2.553;  -13.590;  645.280
1156.034;    1.905;  -11.910;  721.880
1156.572;    2.505;  -12.010;  667.060
1157.110;   -0.133;  -16.250;  473.940
1157.647;    2.375;  -15.230;  676.960
1158.185;    0.668;  -13.770;  564.320
1158.723;    0.637;  -15.300;  509.200
1159.260;    1.288;  -13.130;  701.700
1159.798;    2.018;  -11.300;  658.160
1160.335;    1.243;  -13.210;  631.820

