
Integration time [ms]:   3.882
Averaging Nr. [scans]: 1000
Smoothing Nr. [pixels]: 0
Data measured with spectrometer [name]: 7414430SP
Wave   ;Sample   ;Dark     ;Reference
[nm]   ;[counts] ;[counts] ;[counts] 

288.544;  126.332;   10.292;  793.890
289.143;  128.849;    4.564;  681.602
289.742;  130.941;    6.144;  828.814
290.341;  119.041;    4.396;  789.841
290.940;  109.814;    0.938;  730.702
291.538;  111.198;   -0.684;  881.108
292.137;  108.277;   -2.845;  792.581
292.736;  112.845;   -0.144;  975.101
293.335;  110.320;   -6.352;  735.086
293.934;  111.719;   -7.642;  781.677
294.532;  111.009;   -4.992; 1031.958
295.131;   96.063;   -5.478;  834.394
295.730;   96.292;   -6.549;  809.588
296.328;   94.191;   -9.558;  783.442
296.927;   94.596;   -8.118;  779.652
297.525;   96.311;   -6.908;  781.236
298.124;   86.327;   -9.195;  654.009
298.722;   91.135;   -8.198;  761.933
299.321;   88.073;   -8.817;  708.597
299.919;   86.768;   -7.716;  751.918
300.518;   84.369;  -10.745;  689.338
301.116;   85.106;   -9.647;  691.381
301.715;   84.985;  -10.828;  730.222
302.313;   84.350;   -6.087;  704.943
302.911;   80.543;   -6.824;  733.830
303.509;   85.731;   -8.807;  925.627
304.108;   81.851;   -8.198;  760.383
304.706;   81.791;   -6.218;  801.664
305.304;   77.098;   -7.185;  796.707
305.902;   82.956;   -8.568;  784.484
306.500;   78.411;   -7.737;  728.200
307.098;   76.696;   -6.026;  746.560
307.696;   75.326;   -7.176;  780.432
308.294;   76.744;   -8.656;  731.359
308.892;   78.072;   -6.838;  759.769
309.490;   72.640;   -2.596;  712.161
310.088;   72.409;   -4.485;  788.444
310.686;   77.199;   -3.907;  821.749
311.284;   72.199;   -2.806;  766.040
311.882;   69.601;   -2.845;  731.225
312.480;   66.998;   -3.274;  697.167
313.078;   69.668;   -3.645;  808.331
313.675;   70.837;   -4.997;  691.600
314.273;   65.405;   -0.894;  797.837
314.871;   64.333;   -2.854;  589.829
315.468;   62.892;   -3.644;  652.090
316.066;   66.521;   -3.947;  694.427
316.664;   58.806;   -1.824;  656.351
317.261;   63.841;    1.565;  910.128
317.859;   59.689;   -3.955;  768.735
318.456;   60.934;   -2.886;  830.096
319.054;   57.108;   -0.995;  787.828
319.651;   55.618;   -1.765;  759.928
320.249;   55.263;   -3.685;  810.188
320.846;   52.450;   -3.736;  714.286
321.443;   50.911;   -2.065;  832.135
322.041;   48.110;   -5.635;  812.315
322.638;   46.614;   -5.985;  701.456
323.235;   48.130;   -6.677;  665.683
323.833;   46.151;   -3.497;  740.354
324.430;   41.645;   -6.756;  615.900
325.027;   44.054;   -7.647;  876.855
325.624;   43.755;   -7.598;  644.532
326.221;   40.569;   -5.848;  689.717
326.818;   40.080;   -5.777;  818.332
327.415;   42.232;   -8.769;  748.828
328.012;   42.179;   -6.299;  690.585
328.609;   40.146;   -6.639;  731.389
329.206;   38.280;   -6.358;  778.621
329.803;   38.096;   -8.698;  737.841
330.400;   38.664;   -8.379;  704.260
330.997;   40.391;   -6.178;  817.147
331.594;   38.167;   -5.646;  788.185
332.191;   43.908;   -6.928;  728.722
332.787;   44.902;   -6.057;  844.463
333.384;   42.045;   -6.445;  763.093
333.981;   39.159;   -8.002;  815.687
334.578;   41.612;   -8.443;  708.378
335.174;   44.004;   -6.053;  731.469
335.771;   45.288;   -5.791;  836.456
336.367;   41.037;   -6.570;  710.631
336.964;   43.155;   -6.741;  793.266
337.561;   43.752;   -5.710;  731.112
338.157;   40.755;   -3.928;  911.916
338.754;   35.621;   -5.577;  796.589
339.350;   35.757;   -9.667;  722.493
339.946;   39.175;   -5.269;  773.135
340.543;   30.717;   -4.485;  846.136
341.139;   25.533;   -7.584;  720.836
341.735;   24.146;   -8.553;  772.593
342.332;   22.829;   -4.984;  691.472
342.928;   24.021;   -3.475;  795.394
343.524;   17.343;   -6.653;  761.684
344.120;   14.573;   -7.173;  738.562
344.716;   18.483;   -4.385;  723.717
345.313;   15.701;   -3.565;  795.342
345.909;   11.343;   -7.495;  627.336
346.505;   13.231;   -8.276;  740.247
347.101;   14.223;   -5.697;  827.864
347.697;   14.086;   -4.767;  785.398
348.293;    9.058;   -7.226;  627.244
348.889;   11.047;   -7.547;  745.914
349.485;   10.567;   -9.147;  688.205
350.081;   10.542;   -6.568;  772.592
350.676;    6.285;   -6.516;  691.606
351.272;   11.149;   -7.378;  809.530
351.868;   10.528;   -6.759;  780.497
352.464;    7.819;   -4.798;  723.932
353.059;    4.640;   -7.977;  646.017
353.655;    8.238;   -8.769;  777.063
354.251;    9.171;   -5.920;  759.845
354.846;    3.964;   -7.647;  740.646
355.442;    1.704;   -6.956;  753.071
356.038;    3.483;   -9.928;  751.708
356.633;    3.304;   -7.698;  728.594
357.229;    1.409;   -6.307;  724.757
357.824;    0.391;   -7.647;  703.600
358.420;   -0.766;  -10.047;  679.726
359.015;   -0.411;   -7.458;  695.357
359.610;    0.658;   -5.748;  763.920
360.206;   -5.057;   -9.346;  603.240
360.801;   -1.892;  -11.268;  646.503
361.396;   -0.580;   -8.789;  725.975
361.992;   -4.724;   -6.347;  668.220
362.587;   -6.667;   -6.476;  670.160
363.182;   -4.874;   -9.457;  689.631
363.777;   -3.071;   -7.147;  738.242
364.372;   -3.752;   -5.507;  737.314
364.967;   -7.356;   -6.386;  680.744
365.563;   -3.047;   -7.858;  815.567
366.158;   -5.659;   -8.517;  685.161
366.753;   -5.481;   -8.728;  649.263
367.348;   -6.799;   -7.677;  746.056
367.942;   -7.023;  -10.387;  697.298
368.537;   -8.420;   -7.187;  754.245
369.132;   -7.517;   -8.587;  703.428
369.727;  -11.161;   -8.606;  638.079
370.322;  -10.329;  -10.426;  580.186
370.917;  -10.864;   -5.776;  710.646
371.511;   -7.421;   -6.007;  861.834
372.106;  -11.184;   -6.686;  776.964
372.701;  -13.397;   -9.335;  585.988
373.296;   -8.585;   -6.777;  863.135
373.890;  -13.787;   -7.546;  647.840
374.485;  -15.241;   -8.755;  691.199
375.079;  -10.553;   -9.797;  738.685
375.674;   -9.495;   -6.327;  812.970
376.268;  -14.172;   -9.046;  691.759
376.863;  -19.803;   -7.993;  580.327
377.457;  -13.547;   -9.206;  662.490
378.052;  -14.801;   -5.345;  764.884
378.646;  -16.095;   -5.605;  741.167
379.240;  -16.245;   -6.825;  721.176
379.835;  -15.020;  -10.476;  636.978
380.429;  -17.704;   -8.676;  562.557
381.023;  -16.266;   -4.945;  779.205
381.617;  -19.165;   -8.094;  680.106
382.212;  -15.784;  -10.646;  685.303
382.806;  -14.502;   -8.136;  760.690
383.400;  -18.339;   -7.855;  672.281
383.994;  -18.967;   -8.125;  664.870
384.588;  -15.560;   -7.637;  697.701
385.182;  -14.202;   -7.458;  726.624
385.776;  -15.567;   -6.277;  706.875
386.370;  -18.444;   -7.485;  681.968
386.964;  -17.457;   -9.416;  684.155
387.558;  -16.141;   -8.518;  598.360
388.152;  -19.013;   -7.096;  681.959
388.745;  -17.075;   -7.656;  814.707
389.339;  -14.682;   -8.927;  747.642
389.933;  -14.572;   -9.538;  695.370
390.527;  -15.467;   -5.857;  859.029
391.120;  -21.611;   -9.455;  595.318
391.714;  -19.402;   -9.746;  711.633
392.308;  -16.255;   -7.857;  780.253
392.901;  -19.928;   -9.106;  642.460
393.495;  -21.525;  -10.365;  595.414
394.089;  -18.794;   -9.696;  760.452
394.682;  -19.497;   -7.016;  697.188
395.275;  -19.176;   -8.466;  719.927
395.869;  -21.133;   -8.985;  667.314
396.462;  -18.899;  -11.496;  616.609
397.056;  -16.271;   -7.838;  776.621
397.649;  -21.316;   -6.895;  731.575
398.242;  -16.813;   -5.017;  712.645
398.836;  -16.040;   -8.787;  766.408
399.429;  -17.688;   -8.967;  631.041
400.022;  -21.089;   -8.815;  665.902
400.615;  -17.900;   -6.276;  805.609
401.208;  -16.031;   -8.407;  691.451
401.802;  -18.661;   -7.296;  699.329
402.395;  -19.811;   -7.585;  683.502
402.988;  -20.935;   -8.015;  696.627
403.581;  -17.129;   -9.577;  646.878
404.174;  -14.822;   -7.588;  686.568
404.767;  -18.237;   -7.906;  638.583
405.360;  -20.440;   -7.875;  621.445
405.953;  -13.858;   -8.127;  759.034
406.545;  -14.122;   -7.198;  725.342
407.138;  -19.456;   -8.916;  618.350
407.731;  -17.019;   -9.767;  613.303
408.324;  -12.838;  -10.659;  660.554
408.917;  -14.098;   -8.068;  681.864
409.509;  -16.760;   -9.837;  740.396
410.102;  -17.965;   -8.146;  643.948
410.695;  -11.594;   -7.969;  665.758
411.287;  -12.394;   -8.579;  599.821
411.880;  -14.149;   -6.968;  585.421
412.472;  -16.008;   -9.487;  613.092
413.065;  -13.266;  -10.338;  629.408
413.657;  -12.666;   -9.169;  576.678
414.250;  -11.260;  -10.119;  646.681
414.842;  -12.536;   -9.938;  676.353
415.434;  -10.336;  -10.409;  570.463
416.027;   -6.423;   -9.591;  652.196
416.619;   -9.033;   -7.379;  713.400
417.211;   -8.865;   -9.159;  599.352
417.804;   -4.773;   -9.191;  628.499
418.396;  -10.203;   -8.159;  607.643
418.988;   -7.157;   -6.960;  659.238
419.580;  -10.048;  -11.389;  568.276
420.172;   -7.968;  -13.460;  536.196
420.764;   -3.624;  -10.701;  672.482
421.356;   -4.984;   -8.961;  636.898
421.948;   -5.316;   -9.770;  677.661
422.540;   -0.877;   -8.832;  680.027
423.132;   -1.448;   -8.153;  600.641
423.724;   -5.409;   -8.481;  561.267
424.316;   -2.131;   -9.261;  621.345
424.908;    1.357;   -9.643;  591.517
425.500;    2.644;   -8.663;  647.978
426.092;    2.503;   -8.503;  648.268
426.683;    1.207;  -10.522;  684.836
427.275;    4.716;  -11.734;  641.471
427.867;    5.467;  -10.264;  668.948
428.458;    6.461;   -7.644;  732.344
429.050;    4.669;   -7.853;  680.749
429.642;    7.430;   -8.904;  743.124
430.233;    6.732;  -10.795;  569.356
430.825;    8.172;   -7.665;  724.809
431.416;    6.286;   -8.843;  698.241
432.008;    9.892;   -9.885;  651.723
432.599;   10.059;   -9.966;  656.073
433.190;    6.825;   -9.164;  637.670
433.782;    6.581;   -8.584;  590.395
434.373;   15.242;   -8.296;  884.765
434.964;   12.862;   -9.896;  602.920
435.556;   10.609;   -8.255;  634.537
436.147;   14.202;   -8.075;  758.490
436.738;   14.061;   -9.716;  701.099
437.329;   18.820;   -7.318;  721.723
437.920;   11.386;   -6.694;  666.688
438.511;   11.211;   -9.644;  564.526
439.103;   19.163;   -9.427;  623.998
439.694;   20.767;  -10.748;  681.583
440.285;   20.717;   -7.997;  764.432
440.876;   19.393;  -10.046;  845.738
441.466;   19.048;  -13.467;  575.162
442.057;   23.870;   -9.329;  665.814
442.648;   22.586;   -7.707;  746.255
443.239;   20.915;   -9.017;  620.477
443.830;   27.114;  -10.279;  704.958
444.421;   27.866;  -12.630;  655.474
445.011;   23.702;   -8.697;  693.619
445.602;   24.294;   -7.787;  743.126
446.193;   26.303;  -13.329;  488.117
446.783;   30.720;   -9.171;  640.397
447.374;   26.135;   -7.457;  692.759
447.964;   26.958;   -9.277;  713.770
448.555;   35.901;   -9.041;  822.742
449.145;   31.811;   -8.969;  662.853
449.736;   33.010;   -6.809;  803.179
450.326;   33.154;   -7.229;  713.626
450.917;   37.345;  -11.391;  675.324
451.507;   36.378;   -9.501;  600.661
452.097;   37.989;   -8.460;  746.267
452.688;   38.741;  -10.080;  742.160
453.278;   38.032;  -12.861;  566.840
453.868;   43.355;   -8.372;  793.550
454.458;   40.556;   -8.131;  651.141
455.048;   41.482;   -8.520;  711.783
455.639;   42.443;  -13.632;  567.096
456.229;   46.123;  -10.143;  710.694
456.819;   48.490;   -9.163;  751.158
457.409;   49.086;   -8.652;  773.993
457.999;   51.423;   -9.933;  737.505
458.589;   50.938;  -10.363;  686.606
459.179;   51.295;  -10.633;  717.658
459.769;   49.092;  -12.442;  627.099
460.358;   54.366;   -9.844;  797.262
460.948;   53.699;   -9.924;  689.503
461.538;   56.028;  -10.484;  660.677
462.128;   53.985;  -10.703;  664.934
462.717;   60.942;  -11.486;  710.326
463.307;   63.609;  -10.767;  705.846
463.897;   59.222;   -8.814;  656.942
464.486;   58.609;   -8.182;  837.128
465.076;   63.502;   -9.985;  733.776
465.666;   66.218;  -10.447;  652.900
466.255;   64.097;   -7.754;  785.651
466.845;   63.258;  -10.884;  666.749
467.434;   66.981;  -12.525;  725.873
468.023;   67.518;  -11.456;  658.357
468.613;   65.207;   -9.173;  713.946
469.202;   69.152;   -9.306;  646.507
469.791;   74.080;   -8.917;  737.811
470.381;   76.143;   -9.657;  742.813
470.970;   75.376;   -9.947;  711.099
471.559;   75.522;   -9.256;  733.291
472.148;   78.016;  -13.397;  675.737
472.738;   80.768;   -9.928;  765.466
473.327;   80.592;  -10.897;  637.529
473.916;   80.058;   -8.526;  737.446
474.505;   84.031;  -11.078;  751.703
475.094;   87.447;   -9.559;  806.570
475.683;   86.717;   -8.838;  797.699
476.272;   87.427;  -10.198;  730.632
476.861;   90.407;  -11.489;  706.754
477.449;   96.420;  -10.721;  728.487
478.038;   90.624;   -9.818;  692.513
478.627;   91.753;   -9.887;  714.852
479.216;   99.727;  -10.030;  769.441
479.805;  101.390;   -9.401;  783.375
480.393;  101.842;   -5.739; 1008.945
480.982;  100.729;   -7.838;  874.501
481.571;  107.981;   -9.111;  858.333
482.159;  107.966;  -10.601;  705.386
482.748;  106.967;   -8.500;  821.385
483.336;  111.919;   -9.241;  858.209
483.925;  112.713;  -10.440;  774.373
484.513;  119.256;  -11.063;  758.962
485.102;  116.585;   -9.540;  810.965
485.690;  126.388;   -6.742; 1011.050
486.278;  127.228;   -8.442;  979.329
486.867;  126.724;  -10.472;  809.662
487.455;  128.251;   -8.811;  898.229
488.043;  130.960;  -10.721;  748.361
488.631;  139.644;  -10.393; 1005.079
489.220;  143.104;  -10.843;  908.626
489.808;  141.415;  -10.572;  741.415
490.396;  151.386;  -10.482;  914.645
490.984;  157.247;  -11.542;  830.161
491.572;  166.179;   -8.463;  940.315
492.160;  171.041;   -8.491;  919.081
492.748;  180.041;   -9.681;  884.341
493.336;  198.731;  -10.493; 1019.693
493.924;  222.949;   -9.354;  958.077
494.512;  250.669;   -9.132; 1066.638
495.100;  287.268;   -9.001; 1103.280
495.687;  336.999;  -11.924; 1206.373
496.275;  399.795;  -11.193; 1150.796
496.863;  491.783;   -9.241; 1281.171
497.451;  600.726;  -11.341; 1386.805
498.038;  694.155;  -11.364; 1556.729
498.626;  800.262;   -8.104; 1741.407
499.214;  987.416;   -8.842; 2016.609
499.801; 1183.046;  -10.112; 2220.633
500.389; 1370.100;  -11.953; 2312.494
500.976; 1616.838;  -10.023; 2744.849
501.564; 1909.703;   -8.662; 3148.565
502.151; 2273.854;  -10.531; 3515.999
502.738; 2649.555;  -13.853; 3971.274
503.326; 3185.744;  -10.794; 4403.796
503.913; 3727.845;   -8.663; 5161.749
504.500; 4051.766;  -10.172; 5986.420
505.088; 4383.786;  -13.472; 6381.201
505.675; 5124.462;  -10.924; 6925.547
506.262; 5879.476;   -8.551; 7619.060
506.849; 6662.573;  -10.523; 8733.969
507.436; 7370.974;  -10.834; 9790.121
508.023; 7646.375;   -9.093; 9985.472
508.610; 8060.768;  -10.073;10434.618
509.197; 8566.613;   -9.500;11198.435
509.784; 9867.125;  -13.242;12391.194
510.371;10615.181;  -10.964;13603.713
510.958;10429.599;   -9.772;14426.586
511.545;11455.899;   -7.842;15243.775
512.132;11836.368;  -12.184;15945.876
512.719;11996.758;   -9.733;16340.369
513.305;13761.711;   -9.172;18011.766
513.892;15446.809;   -9.581;19754.971
514.479;17382.357;  -10.253;20967.805
515.066;19500.848;   -8.183;22299.793
515.652;20718.150;   -9.253;22908.660
516.239;21669.986;   -9.412;23798.875
516.825;23821.535;  -11.153;25567.275
517.412;23988.547;  -10.263;28154.959
517.998;24681.391;   -8.802;28344.111
518.585;24299.963;  -10.401;27134.219
519.171;23817.656;  -12.744;27268.576
519.758;25557.313;  -11.793;28964.129
520.344;27990.096;   -8.912;30664.494
520.930;27704.645;  -10.901;32550.605
521.516;28377.424;  -12.034;35422.895
522.103;29169.906;  -10.473;38280.004
522.689;30796.352;   -8.311;37835.117
523.275;34261.676;  -10.691;37288.613
523.861;35427.270;  -11.193;37281.395
524.447;35850.641;  -11.484;37846.949
525.033;35357.602;   -7.702;38321.949
525.619;34857.188;  -11.241;38579.285
526.205;36027.691;  -12.152;40622.875
526.791;34950.016;  -11.423;42258.836
527.377;31110.848;   -7.981;42966.902
527.963;30103.785;   -9.450;42018.949
528.549;33080.125;  -11.351;42476.828
529.135;35922.938;  -10.202;41854.852
529.721;37306.055;   -8.672;41237.711
530.306;38016.035;   -9.111;41259.445
530.892;40472.031;  -11.252;41506.047
531.478;42563.363;  -10.432;43559.613
532.063;44925.137;  -10.721;47695.563
532.649;46772.586;   -7.450;50808.324
533.235;47291.656;  -11.811;51787.500
533.820;47465.008;   -9.383;52145.035
534.406;46592.211;   -9.400;51133.488
534.991;45499.961;   -8.861;49996.805
535.576;43535.027;  -10.612;48882.852
536.162;41080.898;   -7.322;46942.285
536.747;41346.227;   -9.360;45711.746
537.333;42634.906;  -10.450;48510.180
537.918;43028.145;  -12.610;50439.891
538.503;41249.742;  -12.132;50863.711
539.088;36105.148;  -10.831;50906.922
539.673;34834.324;  -11.220;52621.965
540.259;40777.578;  -11.481;52368.094
540.844;47914.941;  -11.462;50879.109
541.429;51469.008;   -7.869;52077.777
542.014;52700.289;  -11.859;52716.695
542.599;51778.844;  -11.061;52363.281
543.184;51193.570;  -12.300;53187.137
543.769;50219.129;   -9.369;54697.605
544.354;50069.648;  -12.020;53913.914
544.938;46755.023;  -10.350;49680.164
545.523;43799.777;  -10.841;47386.277
546.108;45973.656;   -8.579;49151.949
546.693;48498.074;   -8.818;51384.637
547.278;49605.375;  -11.331;51853.254
547.862;45849.738;  -10.292;51173.750
548.447;41661.695;   -8.349;51691.395
549.031;42778.547;  -10.838;52456.703
549.616;48588.117;  -11.681;52714.516
550.201;52008.238;  -11.140;52414.598
550.785;50137.727;   -8.649;52355.059
551.370;50122.578;  -11.889;54589.453
551.954;49708.629;  -11.239;58267.348
552.538;49217.547;   -8.850;59062.176
553.123;49928.180;  -10.829;58115.285
553.707;50343.563;   -8.887;56556.285
554.291;49619.656;  -10.430;56201.668
554.876;47688.625;   -9.799;55335.762
555.460;48977.320;  -10.018;54155.703
556.044;50220.043;   -7.307;53721.484
556.628;46620.188;  -12.229;53731.016
557.212;43479.145;   -9.820;54312.531
557.796;43006.777;   -9.109;53797.773
558.380;44565.340;   -9.707;56145.984
558.964;43710.754;  -10.980;57277.930
559.548;44280.855;  -12.010;56459.641
560.132;47817.117;   -7.928;54434.543
560.716;49321.410;  -10.247;54800.617
561.300;49342.164;  -11.250;57606.945
561.884;51063.883;  -10.568;58972.445
562.467;49440.617;   -9.727;57327.570
563.051;47999.438;  -11.847;54962.434
563.635;46556.832;  -10.747;52594.473
564.219;43188.746;  -13.108;50610.410
564.802;40318.949;  -11.417;49551.180
565.386;41578.371;  -10.457;48370.953
565.969;42995.176;   -8.959;48178.871
566.553;42027.250;  -10.328;49957.305
567.136;40951.566;  -10.257;50369.594
567.720;40842.559;  -10.186;49492.004
568.303;41128.137;  -10.027;50616.352
568.887;42118.883;  -10.397;50727.148
569.470;40386.695;   -8.185;51698.379
570.053;39363.699;  -11.596;52122.078
570.637;39063.813;  -11.378;52536.438
571.220;39014.609;   -9.138;51186.098
571.803;38203.512;   -7.675;51032.762
572.386;36893.699;   -8.976;49609.887
572.969;34565.176;  -12.477;48285.926
573.552;35636.531;   -9.767;47624.285
574.135;36056.297;   -8.175;45498.641
574.718;32733.471;  -11.096;41970.434
575.301;31001.340;  -11.966;41447.137
575.884;29269.209;  -12.836;40923.836
576.467;33182.105;   -9.116;45267.723
577.050;33972.965;  -10.536;48175.543
577.633;34918.266;  -11.027;47729.328
578.216;36348.227;   -9.946;47579.793
578.799;36678.844;   -9.645;47820.996
579.381;37561.133;   -9.446;48115.551
579.964;38933.797;  -12.217;47333.766
580.547;39678.434;  -10.586;46668.969
581.129;39971.523;   -8.374;44466.141
581.712;37717.953;  -10.434;44164.922
582.294;35015.270;  -10.896;46477.855
582.877;35190.230;   -8.906;48244.254
583.459;36310.641;   -9.994;47437.895
584.042;37183.293;  -10.084;46943.219
584.624;37151.539;  -13.534;46792.227
585.206;35181.363;  -12.716;46557.250
585.789;35989.039;  -11.614;45793.773
586.371;34368.660;  -10.203;43836.391
586.953;31627.916;  -10.314;42972.492
587.536;31944.344;   -9.776;42487.211
588.118;33350.434;   -9.821;42086.414
588.700;34595.625;  -10.073;43389.930
589.282;33070.711;  -12.395;43646.039
589.864;32606.170;  -11.514;43438.109
590.446;32708.160;  -10.803;43151.926
591.028;31840.914;  -11.043;42781.867
591.610;32067.174;  -13.244;42839.098
592.192;31933.871;  -11.095;42820.402
592.774;30414.479;  -10.823;40724.277
593.356;29687.412;  -11.052;39874.789
593.937;31049.309;  -11.664;39980.648
594.519;34695.480;  -10.454;42069.633
595.101;37456.102;  -10.322;42976.031
595.683;36475.715;  -10.042;44084.441
596.264;32680.131;  -14.334;43478.797
596.846;33879.285;  -10.863;43803.672
597.427;33049.590;   -9.901;42986.934
598.009;31699.625;  -10.911;42832.219
598.591;32368.043;  -10.483;42580.086
599.172;33922.625;   -9.663;43061.805
599.753;34876.293;  -10.631;41691.469
600.335;35007.445;   -9.371;40692.520
600.916;32910.434;  -13.992;39982.422
601.498;32713.102;   -8.352;40318.617
602.079;33175.898;   -8.411;40670.609
602.660;32628.127;  -10.841;41450.898
603.241;32247.430;  -12.963;41137.738
603.823;32560.900;  -11.523;38868.797
604.404;32112.158;  -11.881;38182.785
604.985;33190.980;  -11.721;38078.047
605.566;33157.391;   -9.293;38056.633
606.147;31940.027;  -10.940;37020.418
606.728;33540.348;  -11.840;37883.359
607.309;34379.105;  -11.781;38748.273
607.890;34558.430;  -11.262;38850.230
608.471;33106.926;  -10.111;37457.918
609.051;33158.605;   -7.709;36066.457
609.632;30466.262;  -12.409;35991.074
610.213;30515.006;  -10.811;37402.641
610.794;31729.902;  -11.630;38383.363
611.374;35370.344;   -8.030;40562.387
611.955;35503.063;  -10.809;38533.727
612.536;34273.035;  -10.531;36951.789
613.116;34229.285;  -12.820;37197.891
613.697;35863.719;  -11.419;38411.125
614.277;36749.031;   -9.768;38673.938
614.858;33310.758;  -10.251;37075.863
615.438;29688.434;  -11.981;35092.906
616.019;27414.590;   -8.978;33666.301
616.599;29736.891;  -12.219;34189.023
617.179;32137.951;  -14.170;36952.047
617.760;33082.051;   -9.211;39582.574
618.340;33184.051;   -9.018;38943.977
618.920;33400.902;   -9.249;37594.156
619.500;33446.473;  -12.728;37866.938
620.080;34044.465;  -12.939;37869.043
620.660;35021.145;  -11.586;36868.617
621.241;34195.242;  -11.538;36352.309
621.821;32765.436;  -11.398;35459.520
622.401;31397.520;  -10.179;35207.414
622.980;31302.172;  -11.587;35980.422
623.560;32729.055;  -12.888;37351.328
624.140;31291.916;  -13.149;34388.582
624.720;27118.287;   -9.928;32368.764
625.300;26672.221;  -10.869;32638.629
625.880;29369.809;   -8.617;34599.035
626.459;30715.850;  -12.138;36831.738
627.039;33464.016;  -12.267;38299.098
627.619;36831.336;   -7.476;38289.574
628.198;37956.820;  -11.347;37220.695
628.778;35190.953;  -11.678;37632.563
629.357;32756.275;  -12.438;38003.012
629.937;32144.498;   -9.576;38402.039
630.516;31790.158;  -11.096;37868.801
631.096;32771.219;  -11.828;35760.410
631.675;34296.359;  -11.565;35225.219
632.254;34967.043;  -11.845;35130.289
632.834;36380.555;  -11.545;35794.570
633.413;35694.594;  -10.887;35788.922
633.992;35510.570;  -10.175;34532.863
634.571;36116.414;   -9.704;33590.113
635.151;34345.992;  -10.815;34943.863
635.730;32745.008;  -11.617;35352.523
636.309;32617.734;  -10.836;35366.605
636.888;33300.184;   -9.755;36165.637
637.467;33265.754;  -11.684;37515.902
638.046;33595.238;  -11.987;39288.695
638.625;33527.098;  -10.455;38279.699
639.204;33360.367;  -11.234;37741.598
639.782;34099.391;  -12.023;38364.551
640.361;32327.977;  -11.506;36740.621
640.940;28865.787;  -12.316;34950.082
641.519;26764.402;  -11.616;34137.398
642.097;29399.285;   -9.266;35654.258
642.676;33227.316;  -12.936;35637.957
643.255;33736.945;   -9.966;36567.074
643.833;34027.945;   -8.916;37809.434
644.412;32071.191;  -10.936;37337.293
644.990;31605.590;  -12.176;37018.531
645.569;32617.021;  -12.246;36518.469
646.147;35756.527;  -12.107;36186.430
646.726;38668.371;  -12.937;36267.688
647.304;35431.547;  -12.547;36647.625
647.882;34031.547;  -12.597;39286.742
648.461;33155.707;   -9.427;39157.703
649.039;33323.246;   -8.937;35412.883
649.617;34204.320;  -11.067;34744.918
650.195;32606.078;  -10.657;35403.098
650.773;30018.441;  -10.097;35053.797
651.352;29636.246;  -11.887;33756.816
651.930;28800.885;  -13.557;31868.773
652.508;28711.840;  -11.767;33121.551
653.086;31557.986;  -10.777;33564.793
653.663;34204.012;  -12.067;34054.668
654.241;36858.199;  -14.918;35693.309
654.819;36532.070;  -11.788;36422.906
655.397;34407.102;  -11.268;38213.484
655.975;32800.074;  -11.738;39507.625
656.553;31187.434;  -11.018;39498.223
657.130;29631.506;  -12.848;40395.480
657.708;28287.537;  -10.098;39242.020
658.286;29411.447;  -11.678;38920.020
658.863;31872.844;  -11.498;40202.898
659.441;34736.734;  -11.008;39677.938
660.018;36632.051;  -11.048;40413.355
660.596;37251.715;  -12.058;39931.414
661.173;37663.254;  -14.158;39604.531
661.750;37182.684;  -12.298;39700.070
662.328;36683.563;  -10.699;39292.809
662.905;36028.957;  -12.119;38235.648
663.482;31941.504;  -11.829;36212.305
664.060;28255.600;  -11.009;35944.945
664.637;31551.832;  -10.369;35170.785
665.214;34163.465;  -10.459;34197.523
665.791;33589.801;  -12.599;34549.520
666.368;30973.982;  -12.919;35118.578
666.945;29107.641;  -10.699;36019.418
667.522;30354.393;  -11.359;36048.438
668.099;30961.416;  -13.529;36243.914
668.676;29899.023;  -10.229;35958.875
669.253;29566.330;   -9.279;37384.730
669.830;28908.047;  -11.370;36779.629
670.407;28415.656;  -10.950;35231.289
670.984;29292.037;  -12.850;35544.270
671.560;28429.172;   -8.440;35466.867
672.137;29521.572;  -13.520;34280.863
672.714;31259.547;  -13.620;34632.863
673.290;31811.469;  -10.450;35135.422
673.867;30652.342;  -10.960;36114.480
674.443;31560.236;  -13.300;36152.859
675.020;29881.051;  -12.370;35327.238
675.596;29247.293;  -11.250;35795.176
676.173;29623.709;  -11.080;35430.355
676.749;29210.414;  -13.220;33549.516
677.326;30265.123;  -13.000;32210.012
677.902;30222.854;  -12.701;32068.871
678.478;28893.488;  -12.801;32583.891
679.054;29179.975;   -8.601;32088.928
679.631;30390.711;  -12.631;30978.848
680.207;31564.887;   -9.451;33160.887
680.783;30591.223;  -11.701;35570.363
681.359;30672.219;  -12.701;36125.184
681.935;32582.859;  -13.271;35240.922
682.511;34796.578;  -10.791;34429.961
683.087;32763.684;  -10.791;34463.680
683.663;29429.201;   -8.121;34648.898
684.239;27385.584;  -13.261;34546.457
684.815;28357.654;  -10.581;35586.375
685.390;29922.951;   -9.961;35821.895
685.966;29187.484;  -11.182;35085.871
686.542;28413.217;  -13.512;34198.230
687.118;26643.293;  -11.472;32847.707
687.693;25657.541;  -10.152;32794.027
688.269;25716.332;  -14.442;33072.367
688.844;24648.785;  -11.852;33141.664
689.420;23647.570;  -13.942;33965.742
689.995;25022.121;   -9.702;34655.523
690.571;26848.105;  -11.312;33576.742
691.146;27186.268;  -14.332;32657.219
691.722;26941.725;  -11.192;32526.979
692.297;27719.594;  -10.962;33014.617
692.872;29100.936;  -11.082;34012.254
693.448;29833.777;  -14.732;34237.434
694.023;29161.402;  -12.363;34142.672
694.598;27344.984;  -12.393;34132.031
695.173;28150.627;  -11.023;34205.250
695.748;29529.838;  -12.743;32882.488
696.323;28839.311;  -11.103;32864.906
696.898;28387.059;   -8.123;33170.004
697.473;28126.072;  -12.603;32432.984
698.048;28250.717;  -12.553;31649.303
698.623;29616.258;  -12.573;30778.141
699.198;29326.451;  -12.743;31140.119
699.773;28509.600;  -12.843;31764.299
700.348;28796.514;  -16.683;31780.816
700.922;29920.342;  -11.403;32046.375
701.497;31545.832;  -11.253;32603.574
702.072;31013.320;  -10.044;34799.871
702.646;30574.350;  -13.054;35793.172
703.221;31436.742;  -11.414;35201.590
703.795;30187.625;  -10.644;34764.527
704.370;27820.061;  -13.484;34307.367
704.944;27124.822;  -12.144;33509.887
705.519;26836.652;  -12.024;31388.584
706.093;28434.104;  -11.234;31340.104
706.668;29629.480;   -9.874;32630.281
707.242;29077.258;  -12.404;32728.779
707.816;27417.959;  -10.644;32947.238
708.390;26789.869;  -11.174;33277.855
708.965;26754.635;  -10.324;33834.336
709.539;27368.824;  -12.014;33709.273
710.113;27536.801;  -12.295;33044.313
710.687;29257.730;  -10.965;31953.992
711.261;31299.586;  -13.685;30505.949
711.835;29750.818;  -15.335;30262.369
712.409;28442.447;  -13.785;31254.447
712.983;28410.506;  -10.525;32754.986
713.557;26527.270;  -13.175;34018.824
714.131;26479.033;  -13.245;34579.625
714.704;29702.576;  -13.175;33890.262
715.278;32071.715;  -11.545;33531.102
715.852;30669.297;  -10.975;33601.660
716.425;29125.709;  -10.075;33515.117
716.999;29732.166;  -12.185;33185.555
717.573;31891.246;   -9.685;33905.996
718.146;32331.506;  -10.516;35199.293
718.720;31082.746;  -12.106;35060.551
719.293;29515.137;  -12.386;34973.230
719.867;29583.965;  -12.456;36394.449
720.440;29744.281;  -10.686;36663.008
721.013;30016.219;  -12.596;35102.426
721.587;31503.963;  -13.956;33985.266
722.160;33141.121;   -9.806;33524.965
722.733;33467.895;  -11.676;32987.043
723.306;32906.020;  -14.276;33066.301
723.880;30869.641;  -12.126;33399.500
724.453;28450.701;  -10.156;33468.297
725.026;28124.994;  -12.956;33816.637
725.599;28112.072;  -11.676;32797.996
726.172;28574.863;  -12.337;33187.434
726.745;28826.529;  -11.277;35136.613
727.318;28741.730;  -11.927;35751.730
727.891;27924.311;  -13.607;35890.430
728.463;25753.064;  -11.327;34822.090
729.036;25808.475;  -11.917;32895.086
729.609;27452.277;  -12.697;31823.225
730.182;28126.736;  -11.787;31445.283
730.754;27823.172;  -12.957;32373.223
731.327;27630.547;  -11.017;33676.820
731.900;27443.096;  -12.797;33417.000
732.472;26799.471;  -10.677;31978.498
733.045;26388.412;  -12.797;30368.777
733.617;26399.625;  -13.908;30574.215
734.190;25127.969;  -12.258;31280.975
734.762;25340.533;  -13.438;31674.412
735.334;26749.771;  -11.758;31247.291
735.907;29495.445;  -11.158;29876.211
736.479;32588.289;  -11.258;29808.488
737.051;32893.785;  -10.918;30233.547
737.623;31852.576;  -11.038;31469.086
738.195;33298.004;  -12.188;31784.225
738.768;30726.469;  -11.378;32120.523
739.340;24713.563;  -12.598;32094.342
739.912;23262.299;  -11.568;31312.680
740.484;25239.873;   -9.348;31946.238
741.056;27901.154;  -12.628;32984.059
741.628;29578.002;  -13.349;33897.715
742.199;28473.236;  -11.309;33213.016
742.771;28809.594;  -12.699;31369.113
743.343;29606.646;  -11.919;31865.473
743.915;29187.949;  -11.679;32388.631
744.487;27457.711;  -12.249;31079.568
745.058;25441.547;  -11.119;30570.107
745.630;24642.850;   -9.439;29970.127
746.201;24100.357;  -11.949;29186.766
746.773;24095.945;  -12.639;28805.723
747.344;25283.410;  -11.039;29591.223
747.916;27512.816;  -12.549;31412.201
748.487;26306.658;  -12.659;32194.898
749.059;24515.291;  -13.059;32533.719
749.630;23610.102;  -12.080;32158.518
750.201;22069.281;  -13.100;30855.395
750.773;21342.895;  -15.310;28622.555
751.344;21178.699;  -12.240;28405.732
751.915;21576.068;  -11.960;28461.551
752.486;20840.164;  -13.200;27842.850
753.057;19556.160;  -15.230;27845.008
753.628;20792.533;  -13.130;27728.107
754.199;23208.994;  -12.720;27381.086
754.770;23232.977;  -10.680;25882.203
755.341;21565.316;  -11.010;25886.184
755.912;20929.453;  -12.990;26050.861
756.483;20408.172;  -11.110;26798.779
757.054;20153.486;  -12.190;27048.238
757.625;20117.785;  -13.981;26294.838
758.195;20363.283;  -11.041;26142.076
758.766;21557.547;  -11.861;26392.234
759.337;21851.461;  -11.461;26334.594
759.907;21080.229;  -15.001;27579.652
760.478;19925.861;   -9.681;28352.770
761.048;18878.482;  -12.421;27325.088
761.619;19551.830;  -11.761;26460.428
762.189;20013.594;  -12.391;26029.826
762.760;19631.734;  -10.201;26430.145
763.330;20476.295;  -10.811;26670.902
763.900;20966.070;  -10.261;26603.021
764.471;19709.453;  -13.061;25542.740
765.041;18112.199;  -11.051;24358.459
765.611;18123.008;  -11.032;23991.297
766.181;18347.553;  -10.532;24470.236
766.751;18819.727;  -13.502;24845.975
767.321;20157.484;  -11.392;24533.633
767.891;21950.244;  -11.522;24916.492
768.461;23001.850;  -13.672;24776.771
769.031;20397.070;  -14.652;24757.988
769.601;17591.811;  -10.182;24181.088
770.171;16339.516;  -11.752;23670.387
770.741;15330.961;  -12.272;22960.045
771.311;15268.563;  -13.112;22917.523
771.880;16370.087;  -14.122;23562.941
772.450;17100.527;  -11.782;24216.500
773.020;17226.355;  -12.642;24140.398
773.589;16432.051;  -13.043;24414.857
774.159;16007.243;  -11.783;23858.717
774.729;16877.904;  -13.473;22942.135
775.298;17456.441;  -14.523;22324.033
775.867;16801.590;  -12.013;21140.313
776.437;16081.282;  -12.113;20838.092
777.006;15895.983;  -13.543;20599.510
777.576;16604.992;  -12.523;20508.809
778.145;16792.014;  -12.173;20732.947
778.714;16087.346;  -12.153;21062.465
779.283;15271.326;  -11.833;20949.664
779.853;15265.200;  -13.483;20508.623
780.422;15233.453;  -12.933;20649.082
780.991;14825.352;  -13.173;21527.520
781.560;14745.585;  -10.224;22632.658
782.129;15200.437;  -12.684;23048.277
782.698;15162.326;  -11.284;23438.555
783.267;15078.865;  -11.684;23267.734
783.836;14872.953;  -10.974;22415.133
784.404;14368.187;  -13.534;20443.152
784.973;13459.887;  -16.734;19699.150
785.542;12301.804;  -12.594;19763.828
786.111;12018.684;  -11.644;20341.408
786.679;13154.097;  -11.384;20207.967
787.248;13533.038;  -12.014;19516.465
787.817;12309.002;  -12.804;18900.363
788.385;10970.321;  -11.994;17879.121
788.954;11267.615;  -12.564;17658.301
789.522;12270.866;  -12.225;17788.879
790.090;12353.036;  -13.775;18118.277
790.659;12211.411;  -12.485;18338.736
791.227;12927.375;  -12.295;18508.615
791.795;13557.479;  -13.415;17898.254
792.364;13958.402;  -12.995;17295.133
792.932;13618.930;   -8.365;16822.051
793.500;12494.891;  -11.925;17040.148
794.068;12648.844;  -13.245;17179.787
794.636;13394.296;  -13.815;16664.246
795.204;13337.214;  -13.375;16524.545
795.772;13106.749;  -12.125;17274.564
796.340;12315.224;  -13.855;17891.002
796.908;10763.869;  -13.456;17648.561
797.476;10020.372;  -13.116;17064.080
798.044;10198.588;  -13.226;16672.777
798.612;10441.612;  -11.236;17023.996
799.180;10312.377;  -10.476;16561.615
799.747; 9915.411;  -11.746;15962.773
800.315; 9482.647;  -12.366;15296.992
800.883; 8850.788;  -14.616;14801.771
801.450; 8955.817;  -11.996;14534.430
802.018; 9814.239;  -11.206;14173.248
802.585;10299.107;  -12.466;14029.547
803.153; 9833.939;  -12.846;13836.846
803.720; 9222.199;  -12.136;13567.324
804.287; 9360.572;  -10.966;13360.622
804.855; 9470.468;   -9.797;13681.981
805.422; 8638.768;  -13.037;13536.560
805.989; 7940.167;  -12.697;13355.958
806.556; 8176.398;  -11.737;13747.896
807.124; 8898.474;  -11.997;13987.376
807.691; 8655.460;  -13.997;14038.674
808.258; 8012.910;  -10.927;14120.152
808.825; 8211.368;  -13.727;13860.111
809.392; 8247.539;  -11.847;13268.790
809.959; 8226.756;  -14.217;12680.389
810.526; 8191.729;   -8.277;12427.308
811.093; 8388.690;   -9.647;12030.105
811.659; 8442.515;  -10.987;11653.664
812.226; 7798.844;  -13.447;11637.183
812.793; 7337.276;  -14.418;11611.521
813.360; 7527.291;  -13.908;11885.181
813.926; 7995.455;  -12.918;12770.539
814.493; 8176.502;  -14.888;12677.638
815.060; 7747.977;  -12.758;11974.336
815.626; 7432.844;  -13.478;11594.715
816.193; 7395.281;  -13.898;11579.474
816.759; 7490.866;  -13.588;11666.972
817.325; 7420.942;  -12.018;11325.530
817.892; 7105.739;  -14.068;11105.369
818.458; 7215.559;  -13.458;10843.928
819.024; 7112.672;  -11.968;10714.406
819.591; 6886.119;  -11.028;10469.165
820.157; 6991.969;  -12.088;10235.523
820.723; 7104.490;  -12.599;10847.563
821.289; 6801.735;  -10.419;11040.980
821.855; 6594.917;  -10.939;10357.100
822.421; 6587.529;  -12.539; 9978.918
822.987; 6561.780;  -13.259; 9754.177
823.553; 6367.183;  -15.369;10065.755
824.119; 6256.003;  -10.779;10036.294
824.685; 6260.675;   -9.999;10029.192
825.251; 6080.353;  -11.819;10199.230
825.816; 5998.720;  -13.369; 9820.189
826.382; 5815.720;  -12.679; 9297.248
826.948; 5331.849;  -11.199; 9381.347
827.513; 5166.577;  -11.179; 9450.726
828.079; 5266.313;  -13.489; 9472.444
828.645; 5380.475;  -12.500; 9292.643
829.210; 5403.647;  -15.120; 9065.341
829.776; 5365.146;  -12.590; 9132.620
830.341; 5466.261;  -11.540; 9092.878
830.906; 5813.639;  -12.400; 9078.557
831.472; 5792.130;  -12.720; 8534.535
832.037; 5097.513;  -11.490; 8677.874
832.602; 4425.693;  -14.380; 8628.692
833.167; 4157.907;  -12.780; 8879.031
833.733; 4409.084;  -11.100; 9189.790
834.298; 4786.477;  -12.080; 9052.608
834.863; 4665.995;  -13.910; 8895.087
835.428; 4369.606;  -13.470; 8824.266
835.993; 4212.125;  -11.760; 8845.385
836.558; 4409.737;  -12.731; 8888.563
837.123; 4558.231;  -12.431; 8966.582
837.688; 4389.045;  -11.241; 8617.860
838.253; 4200.600;  -13.681; 8590.699
838.817; 4300.869;  -12.531; 8443.797
839.382; 4411.925;  -12.671; 8799.356
839.947; 4458.057;  -11.541; 8810.595
840.511; 4566.653;  -12.021; 8796.394
841.076; 4632.044;  -13.071; 8347.231
841.641; 4870.467;  -11.411; 8224.330
842.205; 5158.330;  -13.671; 8223.349
842.770; 5066.586;  -11.291; 8622.107
843.334; 4762.489;  -12.951; 8410.386
843.898; 4501.190;  -11.221; 8337.465
844.463; 4565.453;  -11.322; 8506.283
845.027; 4535.353;  -11.412; 8280.962
845.591; 4290.749;  -11.512; 8231.141
846.156; 4188.916;  -14.042; 7969.179
846.720; 4233.920;  -12.152; 7768.278
847.284; 4039.895;  -10.922; 7630.957
847.848; 3843.328;  -10.962; 7472.395
848.412; 3628.564;  -14.612; 7437.394
848.976; 3652.213;  -11.492; 7674.592
849.540; 3949.541;   -9.172; 7836.011
850.104; 4149.284;  -11.232; 7913.669
850.668; 4074.805;  -15.182; 7694.508
851.232; 3966.423;  -15.332; 7756.887
851.796; 3917.102;  -13.703; 7926.545
852.359; 3996.736;  -11.113; 7827.844
852.923; 4107.732;  -11.843; 7641.163
853.487; 4075.537;  -11.173; 7342.501
854.050; 3940.061;  -13.443; 7042.820
854.614; 3895.569;  -13.823; 7151.338
855.177; 3819.799;  -16.393; 7105.077
855.741; 3777.562;  -11.693; 6989.675
856.304; 3772.091;  -10.843; 6596.634
856.868; 3668.689;  -13.783; 6356.272
857.431; 3439.487;  -11.953; 6468.571
857.995; 3172.223;  -13.683; 6373.210
858.558; 3141.833;  -11.433; 6324.448
859.121; 3252.515;  -12.493; 6408.327
859.684; 3155.539;  -12.384; 6347.886
860.247; 2822.818;  -14.774; 6321.264
860.810; 2573.700;  -13.154; 6301.903
861.374; 2563.757;  -11.264; 6607.881
861.937; 2617.705;  -15.424; 6408.200
862.500; 2597.071;  -12.854; 6572.639
863.062; 2586.239;  -12.344; 6387.297
863.625; 2607.030;  -13.314; 6190.836
864.188; 2711.136;  -14.724; 5807.254
864.751; 2917.265;  -13.464; 5682.413
865.314; 3280.544;  -11.684; 5547.492
865.876; 3493.345;  -11.104; 5500.150
866.439; 3424.436;  -12.344; 5415.909
867.002; 3232.199;  -13.494; 5501.567
867.564; 2958.128;  -10.935; 5413.946
868.127; 2762.916;  -12.665; 5160.325
868.689; 2714.405;  -14.515; 5133.183
869.252; 2761.677;  -13.425; 5252.382
869.814; 2932.895;  -11.595; 5297.141
870.377; 3029.971;  -12.175; 5390.919
870.939; 2909.865;  -10.265; 5599.898
871.501; 2771.212;  -12.375; 5248.336
872.063; 2676.973;  -14.355; 4854.235
872.626; 2591.124;  -14.435; 4817.074
873.188; 2502.532;  -12.415; 4987.732
873.750; 2538.078;  -14.555; 4868.651
874.312; 2470.364;  -11.185; 4779.330
874.874; 2265.571;  -12.715; 4866.348
875.436; 2164.943;  -13.196; 4718.887
875.998; 2131.315;  -11.426; 4660.005
876.560; 2035.915;   -9.786; 4462.964
877.122; 1991.018;  -12.796; 4145.042
877.683; 2005.235;  -13.226; 4056.481
878.245; 2007.128;  -12.036; 3950.740
878.807; 2007.347;  -11.536; 4058.958
879.369; 1993.678;  -10.806; 3954.677
879.930; 1886.659;  -13.946; 3941.495
880.492; 1742.071;  -11.876; 4067.014
881.053; 1699.649;  -13.216; 3859.633
881.615; 1721.420;  -12.226; 3776.071
882.176; 1654.651;  -12.946; 3734.750
882.738; 1426.294;  -10.736; 3678.489
883.299; 1173.789;  -12.057; 3405.407
883.860; 1006.443;  -12.677; 3351.106
884.422;  935.547;  -14.097; 3394.044
884.983;  889.221;  -13.667; 3166.443
885.544;  840.162;  -10.717; 3189.802
886.105;  816.055;  -14.357; 3160.360
886.666;  844.473;  -14.287; 3093.059
887.227;  887.432;  -14.297; 2941.957
887.788;  913.289;  -13.137; 2974.836
888.349;  871.222;  -14.637; 2721.214
888.910;  822.826;  -12.247; 2696.493
889.471;  829.517;  -10.577; 2560.172
890.032;  832.913;  -12.937; 2558.190
890.593;  797.918;  -12.487; 2567.669
891.153;  745.364;  -11.898; 2460.307
891.714;  742.815;  -14.278; 2372.046
892.275;  749.648;  -13.308; 2309.505
892.835;  702.816;  -12.058; 2382.543
893.396;  630.738;  -15.268; 2295.502
893.956;  580.360;  -13.278; 2162.420
894.517;  547.926;  -11.968; 2125.439
895.077;  537.773;  -12.798; 2086.978
895.638;  519.277;  -11.908; 2126.316
896.198;  495.025;  -13.288; 1838.275
896.758;  474.269;  -12.198; 1892.813
897.319;  452.421;  -13.048; 1792.232
897.879;  418.459;  -13.718; 1762.751
898.439;  381.708;  -14.138; 1661.149
898.999;  370.049;  -13.659; 1781.468
899.559;  358.621;  -14.699; 1703.347
900.119;  337.987;  -14.339; 1537.525
900.679;  316.385;  -11.789; 1638.384
901.239;  294.207;  -13.629; 1527.902
901.799;  278.444;  -13.679; 1456.441
902.359;  265.508;  -13.679; 1357.140
902.919;  255.443;  -14.159; 1331.118
903.479;  246.605;  -13.419; 1317.257
904.038;  236.530;  -14.899; 1262.595
904.598;  226.396;  -14.339; 1152.034
905.158;  220.479;  -13.959; 1240.893
905.717;  216.359;  -12.749; 1233.691
906.277;  209.665;  -11.889; 1217.330
906.836;  202.010;  -12.870; 1222.408
907.396;  199.579;  -11.790; 1193.047
907.955;  196.616;  -13.750; 1182.526
908.515;  190.432;  -14.760; 1099.364
909.074;  185.533;  -12.540; 1092.863
909.633;  180.242;  -12.120; 1069.121
910.192;  176.673;  -12.550; 1196.460
910.752;  171.522;  -12.760; 1029.960
911.311;  165.755;  -14.750; 1009.780
911.870;  160.662;  -13.860;  971.460
912.429;  159.109;  -13.480; 1094.080
912.988;  157.756;  -12.370; 1081.060
913.547;  154.139;  -14.670;  940.380
914.106;  151.676;  -12.800;  999.420
914.665;  149.600;  -11.370;  984.020
915.224;  148.093;  -11.430; 1035.760
915.782;  148.088;  -12.260;  922.560
916.341;  148.506;  -12.540; 1049.840
916.900;  145.325;  -12.540;  925.260
917.458;  145.060;  -13.480;  884.220
918.017;  144.688;  -12.470;  942.600
918.576;  143.354;  -13.450;  904.440
919.134;  141.406;  -12.890;  837.980
919.693;  140.259;  -15.480;  893.060
920.251;  138.826;  -14.420;  876.500
920.809;  137.334;  -12.170;  839.580
921.368;  138.054;  -13.650;  885.360
921.926;  138.102;  -12.750;  842.940
922.484;  138.448;  -14.150;  903.360
923.042;  139.449;  -15.100;  880.340
923.601;  141.834;  -10.990;  998.680
924.159;  142.571;  -12.470;  935.560
924.717;  141.427;  -15.640;  841.080
925.275;  142.321;  -12.380;  903.240
925.833;  141.419;  -12.710;  779.320
926.391;  143.185;  -11.200;  938.380
926.949;  143.864;  -16.000;  857.680
927.506;  144.798;  -12.260;  903.500
928.064;  145.214;  -11.300;  877.580
928.622;  145.644;  -13.750;  880.100
929.180;  146.154;  -15.290;  814.180
929.737;  144.302;  -14.500;  808.540
930.295;  145.746;  -10.630;  928.480
930.853;  149.173;  -14.590;  849.100
931.410;  151.928;  -14.450;  821.120
931.968;  154.319;  -14.390;  940.660
932.525;  154.464;  -13.050;  909.380
933.082;  153.620;  -15.620;  811.440
933.640;  156.291;  -15.650;  925.900
934.197;  158.266;  -13.610;  886.360
934.754;  161.534;  -13.320;  897.780
935.312;  166.099;  -13.370;  863.340
935.869;  168.932;  -12.780; 1012.980
936.426;  166.943;  -14.480;  872.800
936.983;  167.848;  -13.180;  889.020
937.540;  169.053;  -15.710;  838.280
938.097;  170.640;  -14.980;  940.120
938.654;  172.786;  -13.060;  898.860
939.211;  172.899;  -12.760;  952.480
939.768;  173.183;  -16.230;  915.420
940.324;  174.315;  -10.940;  904.200
940.881;  173.076;  -12.570;  878.500
941.438;  172.754;  -13.650; 1021.200
941.995;  172.466;  -13.300;  992.560
942.551;  173.948;  -15.800;  875.620
943.108;  172.997;  -14.180;  937.920
943.664;  171.516;  -13.890;  869.340
944.221;  176.135;  -12.640; 1088.140
944.777;  172.685;  -14.700;  869.680
945.334;  171.764;  -13.010;  884.840
945.890;  172.764;  -13.480;  946.480
946.446;  172.602;  -14.920;  947.020
947.003;  171.882;  -13.860;  964.940
947.559;  171.334;  -12.000; 1063.040
948.115;  170.830;  -10.510; 1026.540
948.671;  170.105;  -12.760;  967.300
949.227;  165.867;  -15.390;  859.560
949.783;  162.643;  -15.570;  858.900
950.339;  161.789;  -12.800;  991.000
950.895;  160.684;  -13.780; 1023.840
951.451;  159.616;  -13.810;  925.280
952.007;  160.783;  -12.390;  998.540
952.563;  162.505;  -11.980;  937.780
953.118;  159.357;  -14.070;  904.940
953.674;  161.223;  -14.140;  935.780
954.230;  165.071;  -12.680;  949.640
954.785;  166.814;  -12.770;  936.640
955.341;  163.371;  -11.450;  998.160
955.897;  156.258;  -15.350;  834.660
956.452;  152.681;  -14.200;  953.840
957.008;  147.072;  -10.820; 1083.640
957.563;  145.580;  -13.200; 1009.540
958.118;  145.677;  -14.460;  877.700
958.674;  146.485;  -13.840;  946.780
959.229;  145.764;  -10.670; 1013.980
959.784;  146.590;  -17.040;  832.400
960.339;  149.862;  -12.970; 1001.280
960.894;  152.223;  -12.700;  963.760
961.449;  156.129;  -13.790;  859.960
962.004;  161.901;  -11.760; 1212.840
962.559;  158.848;  -14.840;  860.140
963.114;  153.793;  -14.530;  742.480
963.669;  150.563;  -12.780;  915.500
964.224;  146.814;  -14.330;  874.340
964.779;  141.855;  -14.380;  828.420
965.334;  137.751;  -12.460; 1017.860
965.888;  133.054;  -13.490;  875.360
966.443;  133.852;  -14.140;  972.380
966.998;  130.723;  -16.240;  819.460
967.552;  129.634;  -12.730;  908.380
968.107;  127.793;  -14.510;  868.300
968.661;  128.185;  -11.850;  922.440
969.216;  126.667;  -14.370;  856.280
969.770;  123.714;  -13.010;  917.200
970.324;  122.240;  -12.460;  923.140
970.879;  123.863;  -11.580;  947.180
971.433;  124.896;  -13.130;  952.720
971.987;  123.015;  -12.360;  895.340
972.541;  119.733;  -14.330;  917.100
973.095;  116.261;  -13.310; 1009.460
973.649;  113.825;  -15.830;  809.480
974.203;  113.385;  -15.830;  829.040
974.757;  114.633;  -13.480;  855.220
975.311;  117.664;  -13.720;  872.600
975.865;  118.716;  -15.780;  881.820
976.419;  118.174;  -14.290;  857.400
976.973;  115.534;  -13.210;  849.620
977.526;  112.652;  -12.300;  949.920
978.080;  107.894;  -14.840;  796.780
978.634;  106.907;  -13.100;  921.320
979.187;  102.310;  -12.300;  905.400
979.741;  102.468;  -12.020; 1018.380
980.294;  100.641;  -14.590;  789.160
980.848;   98.148;  -14.390;  717.220
981.401;   97.893;  -14.280;  816.540
981.955;   98.131;  -11.920;  844.300
982.508;   95.147;  -15.790;  746.340
983.061;   95.364;  -12.070;  915.260
983.615;   91.608;  -13.260;  798.800
984.168;   88.881;  -15.540;  770.080
984.721;   88.946;  -13.230;  880.760
985.274;   86.787;  -11.820;  867.500
985.827;   83.662;  -13.510;  834.220
986.380;   82.962;  -14.840;  721.340
986.933;   83.982;  -13.970;  864.800
987.486;   82.779;  -12.450;  861.920
988.039;   80.123;  -11.170;  863.100
988.591;   78.201;  -13.070;  893.260
989.144;   74.996;  -15.530;  737.260
989.697;   73.646;  -14.300;  758.740
990.250;   72.018;  -13.310;  858.100
990.802;   69.853;  -14.490;  755.860
991.355;   71.484;  -12.980;  974.880
991.907;   69.207;  -13.715;  864.320
992.460;   66.930;  -14.450;  753.760
993.012;   64.510;  -12.590;  749.540
993.565;   63.739;  -15.180;  711.360
994.117;   64.698;  -11.630;  950.780
994.669;   61.843;  -13.760;  701.320
995.221;   61.497;  -12.710;  791.920
995.774;   60.541;  -14.620;  787.580
996.326;   59.872;  -13.150;  740.220
996.878;   59.368;  -12.880;  838.420
997.430;   57.679;  -14.580;  699.860
997.982;   57.035;  -14.030;  750.140
998.534;   56.770;  -12.190;  739.060
999.086;   55.025;  -12.990;  738.220
999.638;   54.631;  -13.180;  661.380
1000.190;   53.785;  -14.970;  699.320
1000.741;   52.361;  -12.200;  742.700
1001.293;   51.965;  -13.400;  686.020
1001.845;   51.995;  -14.490;  676.640
1002.396;   52.495;  -15.280;  743.400
1002.948;   51.875;  -12.380;  737.400
1003.500;   49.984;  -13.260;  723.780
1004.051;   51.428;  -13.730;  907.580
1004.603;   51.405;  -12.300;  791.820
1005.154;   46.694;  -15.330;  608.980
1005.705;   45.919;  -12.800;  723.960
1006.257;   45.034;  -13.900;  707.220
1006.808;   44.477;  -14.430;  685.460
1007.359;   43.768;  -12.010;  763.240
1007.910;   41.259;  -12.690;  646.640
1008.461;   41.905;  -13.610;  732.940
1009.013;   40.457;  -14.990;  588.340
1009.564;   41.762;  -11.860;  793.520
1010.115;   39.151;  -12.640;  597.040
1010.665;   39.016;  -14.570;  602.160
1011.216;   40.826;  -15.190;  667.920
1011.767;   39.506;  -13.470;  697.920
1012.318;   39.135;  -13.760;  736.980
1012.869;   38.088;  -15.950;  679.000
1013.419;   37.512;  -15.880;  603.120
1013.970;   38.206;  -14.540;  666.640
1014.521;   36.646;  -13.220;  620.620
1015.071;   37.408;  -15.020;  670.380
1015.622;   36.663;  -17.510;  635.460
1016.172;   35.807;  -14.130;  596.820
1016.723;   35.316;  -14.220;  614.380
1017.273;   35.720;  -15.370;  604.160
1017.823;   36.271;  -15.290;  650.340
1018.374;   35.733;  -13.420;  611.760
1018.924;   34.893;  -11.740;  716.880
1019.474;   35.571;  -12.250;  718.880
1020.024;   34.543;  -15.850;  657.580
1020.574;   35.316;  -13.280;  726.160
1021.124;   35.039;  -13.560;  673.580
1021.674;   33.397;  -13.790;  559.120
1022.224;   34.720;  -14.610;  708.940
1022.774;   33.753;  -13.100;  668.820
1023.324;   34.742;  -11.470;  753.520
1023.874;   35.111;  -11.990;  875.760
1024.423;   32.885;  -14.550;  613.700
1024.973;   32.916;  -14.440;  610.760
1025.523;   32.294;  -13.250;  620.960
1026.072;   31.937;  -15.200;  606.420
1026.622;   31.598;  -14.590;  675.740
1027.172;   32.056;  -11.080;  715.660
1027.721;   31.049;  -14.010;  601.220
1028.270;   31.723;  -13.690;  663.400
1028.820;   30.862;  -15.380;  638.080
1029.369;   30.697;  -14.980;  612.700
1029.918;   30.718;  -13.100;  649.840
1030.468;   30.597;  -13.680;  564.780
1031.017;   30.921;  -13.770;  634.800
1031.566;   29.832;  -14.100;  608.900
1032.115;   30.258;  -11.770;  694.500
1032.664;   28.793;  -14.940;  596.480
1033.213;   30.776;  -13.370;  735.420
1033.762;   29.522;  -13.660;  635.620
1034.311;   28.844;  -13.650;  677.220
1034.860;   29.470;  -13.820;  691.000
1035.408;   29.459;  -12.860;  722.720
1035.957;   29.749;  -13.060;  719.540
1036.506;   26.712;  -14.510;  530.800
1037.055;   30.008;  -13.470;  844.320
1037.603;   28.655;  -14.800;  664.000
1038.152;   26.698;  -14.190;  534.760
1038.700;   27.248;  -11.810;  585.740
1039.249;   26.864;  -12.850;  681.220
1039.797;   27.692;  -14.610;  633.360
1040.345;   26.941;  -15.220;  705.420
1040.894;   26.512;  -13.480;  625.300
1041.442;   25.952;  -13.310;  632.200
1041.990;   25.355;  -14.510;  559.160
1042.538;   24.699;  -15.700;  536.180
1043.087;   24.892;  -13.910;  570.860
1043.635;   27.382;  -13.620;  670.500
1044.183;   26.117;  -14.230;  586.400
1044.731;   25.728;  -13.730;  576.000
1045.279;   24.674;  -13.970;  674.920
1045.827;   27.996;  -10.750;  892.400
1046.374;   23.813;  -15.230;  515.420
1046.922;   23.892;  -15.390;  590.580
1047.470;   24.805;  -12.320;  691.300
1048.018;   24.501;  -13.230;  647.960
1048.565;   25.660;  -13.390;  708.600
1049.113;   23.689;  -15.030;  557.000
1049.660;   23.188;  -12.540;  629.660
1050.208;   24.114;  -15.040;  675.640
1050.755;   23.978;  -14.680;  606.580
1051.303;   24.331;  -13.610;  686.820
1051.850;   23.352;  -14.340;  635.120
1052.397;   20.865;  -16.330;  473.960
1052.945;   22.526;  -15.710;  617.760
1053.492;   23.912;  -12.320;  741.840
1054.039;   22.746;  -13.730;  720.180
1054.586;   22.063;  -16.140;  557.240
1055.133;   23.376;  -14.020;  693.140
1055.680;   22.957;  -13.430;  646.620
1056.227;   21.646;  -14.570;  542.780
1056.774;   23.780;  -14.400;  794.980
1057.321;   21.294;  -14.230;  523.260
1057.868;   21.489;  -14.220;  651.320
1058.415;   21.301;  -14.060;  651.980
1058.961;   21.726;  -14.640;  678.940
1059.508;   21.967;  -13.970;  643.820
1060.055;   21.008;  -15.100;  581.780
1060.601;   21.328;  -12.180;  624.300
1061.148;   20.380;  -15.010;  616.820
1061.694;   20.161;  -14.750;  592.580
1062.241;   21.076;  -14.130;  596.320
1062.787;   20.277;  -14.770;  663.140
1063.334;   21.705;  -13.130;  808.560
1063.880;   20.740;  -14.420;  668.360
1064.426;   20.897;  -13.130;  706.820
1064.972;   18.709;  -13.960;  601.340
1065.518;   17.662;  -13.680;  566.640
1066.065;   19.067;  -15.720;  624.460
1066.611;   18.275;  -13.970;  598.800
1067.157;   18.906;  -13.920;  641.860
1067.703;   19.057;  -14.760;  668.480
1068.249;   18.637;  -14.490;  605.220
1068.794;   18.482;  -14.740;  626.880
1069.340;   17.363;  -13.220;  578.960
1069.886;   18.937;  -14.930;  590.700
1070.432;   17.465;  -14.700;  541.720
1070.977;   17.838;  -14.470;  601.080
1071.523;   17.358;  -14.330;  573.060
1072.068;   17.667;  -14.960;  582.000
1072.614;   18.186;  -16.220;  527.760
1073.160;   18.365;  -11.280;  687.040
1073.705;   16.801;  -15.990;  572.520
1074.250;   17.188;  -16.550;  559.900
1074.796;   18.091;  -14.600;  655.160
1075.341;   17.560;  -13.440;  664.100
1075.886;   17.136;  -14.450;  594.240
1076.431;   16.950;  -13.160;  649.880
1076.976;   16.860;  -14.710;  639.220
1077.521;   16.424;  -14.000;  583.080
1078.067;   15.456;  -14.470;  579.400
1078.612;   16.246;  -14.530;  661.620
1079.156;   15.728;  -15.660;  601.540
1079.701;   16.354;  -16.120;  693.260
1080.246;   16.142;  -12.960;  696.300
1080.791;   16.330;  -13.700;  625.020
1081.336;   16.164;  -15.540;  659.320
1081.880;   16.740;  -14.640;  649.680
1082.425;   14.443;  -14.220;  573.480
1082.970;   16.813;  -11.890;  717.040
1083.514;   15.657;  -13.820;  597.000
1084.059;   14.316;  -14.280;  586.720
1084.603;   13.854;  -12.890;  565.840
1085.147;   14.539;  -13.590;  645.220
1085.692;   15.768;  -14.050;  716.800
1086.236;   12.980;  -14.990;  503.140
1086.780;   16.014;  -12.640;  751.440
1087.325;   14.781;  -15.550;  654.620
1087.869;   14.314;  -14.980;  610.700
1088.413;   15.193;  -13.440;  705.040
1088.957;   12.526;  -12.170;  543.400
1089.501;   15.308;  -12.730;  766.640
1090.045;   14.676;  -14.650;  726.480
1090.589;   12.354;  -14.500;  569.920
1091.133;   13.318;  -12.320;  673.340
1091.676;   13.344;  -16.130;  591.940
1092.220;   12.706;  -13.930;  600.920
1092.764;   14.636;  -12.820;  706.960
1093.307;   13.344;  -11.700;  673.780
1093.851;   12.250;  -15.600;  556.540
1094.395;   13.497;  -13.920;  683.140
1094.938;   12.789;  -16.090;  632.520
1095.482;   11.685;  -13.820;  559.800
1096.025;   13.629;  -12.720;  710.880
1096.568;   14.459;  -12.100;  779.280
1097.112;   11.204;  -15.450;  508.180
1097.655;   12.030;  -14.310;  603.000
1098.198;   10.374;  -14.740;  600.180
1098.741;   11.045;  -15.550;  612.860
1099.285;   11.949;  -12.600;  657.300
1099.828;    9.480;  -15.050;  439.400
1100.371;   11.297;  -14.800;  608.160
1100.914;   11.631;  -16.480;  682.660
1101.457;   12.080;  -12.990;  679.900
1101.999;    9.915;  -14.110;  584.680
1102.542;   11.810;  -11.450;  641.440
1103.085;   10.618;  -13.350;  658.500
1103.628;   11.524;  -13.200;  762.060
1104.170;    9.748;  -12.310;  588.280
1104.713;   10.896;  -14.320;  646.700
1105.256;   10.138;  -16.110;  557.440
1105.798;    9.308;  -15.910;  499.980
1106.341;   11.365;  -12.200;  728.900
1106.883;    9.489;  -14.910;  521.340
1107.425;   10.545;  -14.960;  668.180
1107.968;   10.054;  -13.440;  612.380
1108.510;   10.512;  -14.010;  684.960
1109.052;    8.531;  -15.430;  612.620
1109.594;    9.235;  -15.290;  554.440
1110.136;   10.149;  -13.360;  643.220
1110.679;    9.537;  -13.820;  633.080
1111.221;    9.579;  -13.690;  604.460
1111.763;    8.530;  -14.890;  559.220
1112.304;    8.514;  -14.550;  547.140
1112.846;    9.094;  -12.760;  666.240
1113.388;   12.228;  -10.780;  942.180
1113.930;    9.266;  -12.690;  694.200
1114.472;    8.751;  -15.730;  606.540
1115.013;    6.386;  -14.620;  551.280
1115.555;    7.633;  -14.950;  587.100
1116.097;    7.626;  -16.460;  579.480
1116.638;    9.178;  -13.730;  684.600
1117.180;    8.922;  -13.810;  667.740
1117.721;    7.280;  -13.280;  568.580
1118.262;    9.061;  -15.080;  677.960
1118.804;    8.477;  -14.040;  637.340
1119.345;    7.069;  -15.430;  578.400
1119.886;    8.109;  -15.240;  704.040
1120.427;    7.617;  -15.820;  589.020
1120.969;    7.104;  -14.550;  597.920
1121.510;    6.299;  -14.030;  563.060
1122.051;    7.981;  -11.990;  723.580
1122.592;    6.434;  -16.490;  655.420
1123.133;    5.692;  -15.580;  547.940
1123.673;    7.055;  -12.850;  706.480
1124.214;    6.837;  -13.630;  612.460
1124.755;    7.545;  -14.830;  639.460
1125.296;    6.802;  -13.110;  627.320
1125.836;    6.722;  -11.320;  691.500
1126.377;    6.291;  -14.330;  599.660
1126.918;    6.976;  -12.800;  614.980
1127.458;    5.959;  -13.580;  622.220
1127.999;    5.905;  -10.330;  656.980
1128.539;    6.070;  -13.390;  694.240
1129.079;    6.185;  -16.420;  632.720
1129.620;    5.146;  -15.700;  558.100
1130.160;    4.519;  -14.790;  539.480
1130.700;    5.543;  -12.910;  640.840
1131.240;    6.427;  -15.610;  643.700
1131.781;    4.934;  -12.920;  619.680
1132.321;    5.388;  -15.300;  599.120
1132.861;    4.059;  -14.760;  564.200
1133.401;    4.836;  -15.470;  593.940
1133.941;    5.434;  -13.710;  626.280
1134.481;    4.530;  -11.820;  597.580
1135.020;    4.279;  -14.810;  609.160
1135.560;    5.620;  -13.660;  674.940
1136.100;    3.473;  -13.940;  501.160
1136.640;    3.307;  -15.410;  510.480
1137.179;    2.963;  -16.920;  537.960
1137.719;    4.971;  -16.430;  605.400
1138.258;    4.096;  -16.300;  587.360
1138.798;    5.012;  -13.710;  663.780
1139.337;    2.925;  -13.840;  482.840
1139.877;    4.812;  -16.140;  642.360
1140.416;    6.892;  -11.410;  878.060
1140.955;    2.858;  -12.820;  535.380
1141.494;    3.687;  -12.310;  669.280
1142.034;    3.459;  -16.280;  583.520
1142.573;    4.516;  -13.090;  646.280
1143.112;    2.949;  -13.770;  553.480
1143.651;    3.295;  -15.830;  536.480
1144.190;    4.771;  -15.010;  691.640
1144.729;    3.356;  -13.650;  607.420
1145.267;    3.000;  -13.670;  584.900
1145.806;    4.710;  -13.630;  637.040
1146.345;    3.407;  -14.160;  635.020
1146.884;    3.539;  -11.180;  622.500
1147.422;    1.956;  -15.890;  533.060
1147.961;    4.235;  -12.760;  708.460
1148.500;    4.024;  -15.220;  669.720
1149.038;    3.983;  -13.720;  632.500
1149.577;    2.490;  -13.250;  698.640
1150.115;    0.827;  -16.790;  452.280
1150.653;    2.651;  -15.810;  607.340
1151.192;    2.934;  -14.730;  552.920
1151.730;    2.814;  -13.660;  652.560
1152.268;    1.760;  -15.120;  589.520
1152.806;    2.363;  -15.580;  571.180
1153.344;    0.743;  -16.210;  577.640
1153.882;    1.857;  -12.810;  600.060
1154.421;   -0.202;  -14.150;  470.620
1154.958;    1.052;  -15.360;  595.240
1155.496;    2.694;  -14.710;  645.280
1156.034;    2.367;  -13.640;  721.880
1156.572;    2.531;  -13.740;  667.060
1157.110;    0.879;  -16.960;  473.940
1157.647;    2.159;  -11.940;  676.960
1158.185;   -0.203;  -14.090;  564.320
1158.723;    0.053;  -13.610;  509.200
1159.260;    1.726;  -14.760;  701.700
1159.798;    1.918;  -13.700;  658.160
1160.335;    1.607;  -13.820;  631.820

