
Integration time [ms]:   3.882
Averaging Nr. [scans]: 1000
Smoothing Nr. [pixels]: 0
Data measured with spectrometer [name]: 7414430SP
Wave   ;Sample   ;Dark     ;Reference
[nm]   ;[counts] ;[counts] ;[counts] 

288.544;  127.946;   10.292;  793.890
289.143;  131.299;    4.564;  681.602
289.742;  131.542;    6.144;  828.814
290.341;  120.241;    4.396;  789.841
290.940;  109.420;    0.938;  730.702
291.538;  110.508;   -0.684;  881.108
292.137;  109.793;   -2.845;  792.581
292.736;  114.773;   -0.144;  975.101
293.335;  110.660;   -6.352;  735.086
293.934;  112.000;   -7.642;  781.677
294.532;  112.292;   -4.992; 1031.958
295.131;   97.837;   -5.478;  834.394
295.730;   97.435;   -6.549;  809.588
296.328;   94.946;   -9.558;  783.442
296.927;   95.697;   -8.118;  779.652
297.525;   97.670;   -6.908;  781.236
298.124;   87.392;   -9.195;  654.009
298.722;   91.801;   -8.198;  761.933
299.321;   89.598;   -8.817;  708.597
299.919;   87.522;   -7.716;  751.918
300.518;   84.282;  -10.745;  689.338
301.116;   86.135;   -9.647;  691.381
301.715;   85.644;  -10.828;  730.222
302.313;   85.510;   -6.087;  704.943
302.911;   81.197;   -6.824;  733.830
303.509;   86.421;   -8.807;  925.627
304.108;   83.641;   -8.198;  760.383
304.706;   82.637;   -6.218;  801.664
305.304;   77.986;   -7.185;  796.707
305.902;   84.131;   -8.568;  784.484
306.500;   79.670;   -7.737;  728.200
307.098;   78.333;   -6.026;  746.560
307.696;   75.661;   -7.176;  780.432
308.294;   76.692;   -8.656;  731.359
308.892;   79.138;   -6.838;  759.769
309.490;   74.992;   -2.596;  712.161
310.088;   72.460;   -4.485;  788.444
310.686;   77.515;   -3.907;  821.749
311.284;   73.904;   -2.806;  766.040
311.882;   71.179;   -2.845;  731.225
312.480;   67.614;   -3.274;  697.167
313.078;   69.976;   -3.645;  808.331
313.675;   70.932;   -4.997;  691.600
314.273;   65.987;   -0.894;  797.837
314.871;   64.788;   -2.854;  589.829
315.468;   63.320;   -3.644;  652.090
316.066;   67.033;   -3.947;  694.427
316.664;   60.022;   -1.824;  656.351
317.261;   64.923;    1.565;  910.128
317.859;   59.930;   -3.955;  768.735
318.456;   61.354;   -2.886;  830.096
319.054;   58.275;   -0.995;  787.828
319.651;   57.108;   -1.765;  759.928
320.249;   55.742;   -3.685;  810.188
320.846;   54.194;   -3.736;  714.286
321.443;   52.070;   -2.065;  832.135
322.041;   48.608;   -5.635;  812.315
322.638;   47.379;   -5.985;  701.456
323.235;   48.787;   -6.677;  665.683
323.833;   46.975;   -3.497;  740.354
324.430;   42.640;   -6.756;  615.900
325.027;   44.569;   -7.647;  876.855
325.624;   44.713;   -7.598;  644.532
326.221;   41.653;   -5.848;  689.717
326.818;   41.502;   -5.777;  818.332
327.415;   43.950;   -8.769;  748.828
328.012;   43.715;   -6.299;  690.585
328.609;   42.211;   -6.639;  731.389
329.206;   39.878;   -6.358;  778.621
329.803;   39.690;   -8.698;  737.841
330.400;   40.758;   -8.379;  704.260
330.997;   41.833;   -6.178;  817.147
331.594;   38.946;   -5.646;  788.185
332.191;   44.157;   -6.928;  728.722
332.787;   47.213;   -6.057;  844.463
333.384;   43.987;   -6.445;  763.093
333.981;   40.722;   -8.002;  815.687
334.578;   43.324;   -8.443;  708.378
335.174;   45.836;   -6.053;  731.469
335.771;   45.635;   -5.791;  836.456
336.367;   41.908;   -6.570;  710.631
336.964;   44.283;   -6.741;  793.266
337.561;   45.835;   -5.710;  731.112
338.157;   42.096;   -3.928;  911.916
338.754;   36.612;   -5.577;  796.589
339.350;   36.778;   -9.667;  722.493
339.946;   40.782;   -5.269;  773.135
340.543;   32.346;   -4.485;  846.136
341.139;   26.509;   -7.584;  720.836
341.735;   25.097;   -8.553;  772.593
342.332;   23.745;   -4.984;  691.472
342.928;   25.234;   -3.475;  795.394
343.524;   19.471;   -6.653;  761.684
344.120;   15.916;   -7.173;  738.562
344.716;   19.179;   -4.385;  723.717
345.313;   17.744;   -3.565;  795.342
345.909;   12.332;   -7.495;  627.336
346.505;   15.412;   -8.276;  740.247
347.101;   15.507;   -5.697;  827.864
347.697;   17.092;   -4.767;  785.398
348.293;   10.484;   -7.226;  627.244
348.889;   11.304;   -7.547;  745.914
349.485;   11.193;   -9.147;  688.205
350.081;   12.454;   -6.568;  772.592
350.676;    7.988;   -6.516;  691.606
351.272;   12.879;   -7.378;  809.530
351.868;   12.711;   -6.759;  780.497
352.464;   10.240;   -4.798;  723.932
353.059;    5.603;   -7.977;  646.017
353.655;   10.082;   -8.769;  777.063
354.251;   10.909;   -5.920;  759.845
354.846;    5.745;   -7.647;  740.646
355.442;    2.421;   -6.956;  753.071
356.038;    4.847;   -9.928;  751.708
356.633;    5.878;   -7.698;  728.594
357.229;    2.879;   -6.307;  724.757
357.824;    1.563;   -7.647;  703.600
358.420;    0.949;  -10.047;  679.726
359.015;    1.804;   -7.458;  695.357
359.610;    3.209;   -5.748;  763.920
360.206;   -2.797;   -9.346;  603.240
360.801;    0.082;  -11.268;  646.503
361.396;    2.100;   -8.789;  725.975
361.992;   -2.317;   -6.347;  668.220
362.587;   -5.603;   -6.476;  670.160
363.182;   -2.629;   -9.457;  689.631
363.777;   -2.097;   -7.147;  738.242
364.372;   -0.649;   -5.507;  737.314
364.967;   -6.037;   -6.386;  680.744
365.563;   -1.148;   -7.858;  815.567
366.158;   -3.867;   -8.517;  685.161
366.753;   -3.057;   -8.728;  649.263
367.348;   -4.062;   -7.677;  746.056
367.942;   -5.152;  -10.387;  697.298
368.537;   -5.897;   -7.187;  754.245
369.132;   -5.546;   -8.587;  703.428
369.727;   -9.927;   -8.606;  638.079
370.322;   -8.425;  -10.426;  580.186
370.917;   -8.646;   -5.776;  710.646
371.511;   -4.841;   -6.007;  861.834
372.106;   -8.610;   -6.686;  776.964
372.701;  -11.628;   -9.335;  585.988
373.296;   -6.254;   -6.777;  863.135
373.890;  -10.897;   -7.546;  647.840
374.485;  -13.256;   -8.755;  691.199
375.079;   -8.778;   -9.797;  738.685
375.674;   -6.775;   -6.327;  812.970
376.268;  -11.490;   -9.046;  691.759
376.863;  -17.821;   -7.993;  580.327
377.457;  -10.614;   -9.206;  662.490
378.052;  -11.815;   -5.345;  764.884
378.646;  -12.281;   -5.605;  741.167
379.240;  -13.483;   -6.825;  721.176
379.835;  -13.012;  -10.476;  636.978
380.429;  -14.967;   -8.676;  562.557
381.023;  -13.583;   -4.945;  779.205
381.617;  -16.743;   -8.094;  680.106
382.212;  -13.203;  -10.646;  685.303
382.806;  -11.936;   -8.136;  760.690
383.400;  -15.954;   -7.855;  672.281
383.994;  -17.382;   -8.125;  664.870
384.588;  -13.197;   -7.637;  697.701
385.182;  -11.328;   -7.458;  726.624
385.776;  -12.803;   -6.277;  706.875
386.370;  -16.904;   -7.485;  681.968
386.964;  -15.116;   -9.416;  684.155
387.558;  -12.794;   -8.518;  598.360
388.152;  -16.243;   -7.096;  681.959
388.745;  -14.679;   -7.656;  814.707
389.339;  -12.533;   -8.927;  747.642
389.933;  -12.653;   -9.538;  695.370
390.527;  -12.555;   -5.857;  859.029
391.120;  -19.828;   -9.455;  595.318
391.714;  -15.757;   -9.746;  711.633
392.308;  -12.680;   -7.857;  780.253
392.901;  -16.793;   -9.106;  642.460
393.495;  -17.958;  -10.365;  595.414
394.089;  -15.711;   -9.696;  760.452
394.682;  -17.138;   -7.016;  697.188
395.275;  -17.591;   -8.466;  719.927
395.869;  -18.455;   -8.985;  667.314
396.462;  -16.944;  -11.496;  616.609
397.056;  -13.052;   -7.838;  776.621
397.649;  -18.078;   -6.895;  731.575
398.242;  -15.140;   -5.017;  712.645
398.836;  -12.783;   -8.787;  766.408
399.429;  -14.484;   -8.967;  631.041
400.022;  -17.672;   -8.815;  665.902
400.615;  -15.760;   -6.276;  805.609
401.208;  -13.512;   -8.407;  691.451
401.802;  -15.855;   -7.296;  699.329
402.395;  -16.726;   -7.585;  683.502
402.988;  -17.987;   -8.015;  696.627
403.581;  -14.842;   -9.577;  646.878
404.174;  -12.325;   -7.588;  686.568
404.767;  -15.070;   -7.906;  638.583
405.360;  -18.023;   -7.875;  621.445
405.953;  -11.602;   -8.127;  759.034
406.545;  -11.612;   -7.198;  725.342
407.138;  -15.200;   -8.916;  618.350
407.731;  -13.863;   -9.767;  613.303
408.324;   -9.999;  -10.659;  660.554
408.917;  -10.813;   -8.068;  681.864
409.509;  -12.689;   -9.837;  740.396
410.102;  -14.740;   -8.146;  643.948
410.695;   -8.399;   -7.969;  665.758
411.287;   -9.745;   -8.579;  599.821
411.880;  -10.750;   -6.968;  585.421
412.472;  -14.288;   -9.487;  613.092
413.065;  -10.258;  -10.338;  629.408
413.657;   -8.365;   -9.169;  576.678
414.250;   -7.576;  -10.119;  646.681
414.842;  -10.866;   -9.938;  676.353
415.434;   -7.553;  -10.409;  570.463
416.027;   -3.634;   -9.591;  652.196
416.619;   -5.080;   -7.379;  713.400
417.211;   -5.455;   -9.159;  599.352
417.804;   -1.714;   -9.191;  628.499
418.396;   -6.475;   -8.159;  607.643
418.988;   -3.854;   -6.960;  659.238
419.580;   -7.025;  -11.389;  568.276
420.172;   -5.108;  -13.460;  536.196
420.764;    0.226;  -10.701;  672.482
421.356;   -1.045;   -8.961;  636.898
421.948;   -2.283;   -9.770;  677.661
422.540;    2.930;   -8.832;  680.027
423.132;    2.467;   -8.153;  600.641
423.724;   -1.268;   -8.481;  561.267
424.316;    1.169;   -9.261;  621.345
424.908;    5.001;   -9.643;  591.517
425.500;    5.408;   -8.663;  647.978
426.092;    6.806;   -8.503;  648.268
426.683;    4.565;  -10.522;  684.836
427.275;    7.855;  -11.734;  641.471
427.867;    8.870;  -10.264;  668.948
428.458;   10.189;   -7.644;  732.344
429.050;    8.175;   -7.853;  680.749
429.642;   10.515;   -8.904;  743.124
430.233;   11.311;  -10.795;  569.356
430.825;   13.285;   -7.665;  724.809
431.416;   10.099;   -8.843;  698.241
432.008;   13.995;   -9.885;  651.723
432.599;   14.878;   -9.966;  656.073
433.190;   11.892;   -9.164;  637.670
433.782;   10.378;   -8.584;  590.395
434.373;   19.156;   -8.296;  884.765
434.964;   17.509;   -9.896;  602.920
435.556;   14.453;   -8.255;  634.537
436.147;   17.751;   -8.075;  758.490
436.738;   17.732;   -9.716;  701.099
437.329;   23.489;   -7.318;  721.723
437.920;   16.846;   -6.694;  666.688
438.511;   16.619;   -9.644;  564.526
439.103;   22.760;   -9.427;  623.998
439.694;   25.073;  -10.748;  681.583
440.285;   26.479;   -7.997;  764.432
440.876;   24.435;  -10.046;  845.738
441.466;   23.245;  -13.467;  575.162
442.057;   28.647;   -9.329;  665.814
442.648;   27.521;   -7.707;  746.255
443.239;   25.784;   -9.017;  620.477
443.830;   30.341;  -10.279;  704.958
444.421;   33.074;  -12.630;  655.474
445.011;   29.807;   -8.697;  693.619
445.602;   29.024;   -7.787;  743.126
446.193;   31.192;  -13.329;  488.117
446.783;   35.831;   -9.171;  640.397
447.374;   31.529;   -7.457;  692.759
447.964;   31.380;   -9.277;  713.770
448.555;   40.704;   -9.041;  822.742
449.145;   37.022;   -8.969;  662.853
449.736;   37.544;   -6.809;  803.179
450.326;   37.348;   -7.229;  713.626
450.917;   43.403;  -11.391;  675.324
451.507;   41.967;   -9.501;  600.661
452.097;   42.457;   -8.460;  746.267
452.688;   44.407;  -10.080;  742.160
453.278;   43.519;  -12.861;  566.840
453.868;   49.187;   -8.372;  793.550
454.458;   46.090;   -8.131;  651.141
455.048;   46.505;   -8.520;  711.783
455.639;   48.509;  -13.632;  567.096
456.229;   51.533;  -10.143;  710.694
456.819;   54.227;   -9.163;  751.158
457.409;   54.497;   -8.652;  773.993
457.999;   56.950;   -9.933;  737.505
458.589;   58.070;  -10.363;  686.606
459.179;   57.097;  -10.633;  717.658
459.769;   55.590;  -12.442;  627.099
460.358;   59.849;   -9.844;  797.262
460.948;   59.224;   -9.924;  689.503
461.538;   61.842;  -10.484;  660.677
462.128;   59.975;  -10.703;  664.934
462.717;   66.351;  -11.486;  710.326
463.307;   70.237;  -10.767;  705.846
463.897;   65.637;   -8.814;  656.942
464.486;   65.578;   -8.182;  837.128
465.076;   69.377;   -9.985;  733.776
465.666;   72.860;  -10.447;  652.900
466.255;   70.856;   -7.754;  785.651
466.845;   69.612;  -10.884;  666.749
467.434;   73.506;  -12.525;  725.873
468.023;   74.761;  -11.456;  658.357
468.613;   72.333;   -9.173;  713.946
469.202;   75.764;   -9.306;  646.507
469.791;   80.893;   -8.917;  737.811
470.381;   82.768;   -9.657;  742.813
470.970;   82.903;   -9.947;  711.099
471.559;   82.663;   -9.256;  733.291
472.148;   84.968;  -13.397;  675.737
472.738;   89.215;   -9.928;  765.466
473.327;   87.414;  -10.897;  637.529
473.916;   86.727;   -8.526;  737.446
474.505;   91.731;  -11.078;  751.703
475.094;   95.694;   -9.559;  806.570
475.683;   95.258;   -8.838;  797.699
476.272;   94.647;  -10.198;  730.632
476.861;   97.978;  -11.489;  706.754
477.449;  104.861;  -10.721;  728.487
478.038;   99.550;   -9.818;  692.513
478.627;  100.303;   -9.887;  714.852
479.216;  107.285;  -10.030;  769.441
479.805;  110.471;   -9.401;  783.375
480.393;  110.854;   -5.739; 1008.945
480.982;  108.918;   -7.838;  874.501
481.571;  115.936;   -9.111;  858.333
482.159;  116.320;  -10.601;  705.386
482.748;  116.658;   -8.500;  821.385
483.336;  121.359;   -9.241;  858.209
483.925;  121.430;  -10.440;  774.373
484.513;  128.491;  -11.063;  758.962
485.102;  126.438;   -9.540;  810.965
485.690;  135.056;   -6.742; 1011.050
486.278;  136.923;   -8.442;  979.329
486.867;  137.417;  -10.472;  809.662
487.455;  139.702;   -8.811;  898.229
488.043;  140.720;  -10.721;  748.361
488.631;  150.585;  -10.393; 1005.079
489.220;  154.158;  -10.843;  908.626
489.808;  154.401;  -10.572;  741.415
490.396;  162.713;  -10.482;  914.645
490.984;  169.629;  -11.542;  830.161
491.572;  179.306;   -8.463;  940.315
492.160;  185.118;   -8.491;  919.081
492.748;  194.914;   -9.681;  884.341
493.336;  215.135;  -10.493; 1019.693
493.924;  240.871;   -9.354;  958.077
494.512;  273.286;   -9.132; 1066.638
495.100;  313.827;   -9.001; 1103.280
495.687;  368.005;  -11.924; 1206.373
496.275;  438.211;  -11.193; 1150.796
496.863;  540.494;   -9.241; 1281.171
497.451;  659.379;  -11.341; 1386.805
498.038;  761.422;  -11.364; 1556.729
498.626;  878.036;   -8.104; 1741.407
499.214; 1080.443;   -8.842; 2016.609
499.801; 1296.728;  -10.112; 2220.633
500.389; 1506.397;  -11.953; 2312.494
500.976; 1781.440;  -10.023; 2744.849
501.564; 2102.758;   -8.662; 3148.565
502.151; 2500.979;  -10.531; 3515.999
502.738; 2909.822;  -13.853; 3971.274
503.326; 3506.209;  -10.794; 4403.796
503.913; 4126.026;   -8.663; 5161.749
504.500; 4503.428;  -10.172; 5986.420
505.088; 4879.145;  -13.472; 6381.201
505.675; 5699.457;  -10.924; 6925.547
506.262; 6534.183;   -8.551; 7619.060
506.849; 7384.912;  -10.523; 8733.969
507.436; 8133.224;  -10.834; 9790.121
508.023; 8413.272;   -9.093; 9985.472
508.610; 8887.781;  -10.073;10434.618
509.197; 9417.171;   -9.500;11198.435
509.784;10765.632;  -13.242;12391.194
510.371;11563.722;  -10.964;13603.713
510.958;11356.469;   -9.772;14426.586
511.545;12476.723;   -7.842;15243.775
512.132;12963.566;  -12.184;15945.876
512.719;13114.151;   -9.733;16340.369
513.305;15055.690;   -9.172;18011.766
513.892;16953.533;   -9.581;19754.971
514.479;19081.188;  -10.253;20967.805
515.066;21419.492;   -8.183;22299.793
515.652;22755.918;   -9.253;22908.660
516.239;23763.865;   -9.412;23798.875
516.825;26150.805;  -11.153;25567.275
517.412;26431.330;  -10.263;28154.959
517.998;27193.307;   -8.802;28344.111
518.585;26766.938;  -10.401;27134.219
519.171;26124.957;  -12.744;27268.576
519.758;27930.146;  -11.793;28964.129
520.344;30720.650;   -8.912;30664.494
520.930;30491.131;  -10.901;32550.605
521.516;31072.906;  -12.034;35422.895
522.103;31888.133;  -10.473;38280.004
522.689;33679.828;   -8.311;37835.117
523.275;37611.406;  -10.691;37288.613
523.861;39040.875;  -11.193;37281.395
524.447;39554.359;  -11.484;37846.949
525.033;39197.730;   -7.702;38321.949
525.619;38970.738;  -11.241;38579.285
526.205;40874.922;  -12.152;40622.875
526.791;40754.367;  -11.423;42258.836
527.377;37817.465;   -7.981;42966.902
527.963;38169.828;   -9.450;42018.949
528.549;42455.070;  -11.351;42476.828
529.135;44217.555;  -10.202;41854.852
529.721;42818.070;   -8.672;41237.711
530.306;41187.758;   -9.111;41259.445
530.892;42879.645;  -11.252;41506.047
531.478;44919.223;  -10.432;43559.613
532.063;47488.461;  -10.721;47695.563
532.649;49676.539;   -7.450;50808.324
533.235;50476.543;  -11.811;51787.500
533.820;50748.945;   -9.383;52145.035
534.406;49975.535;   -9.400;51133.488
534.991;48979.684;   -8.861;49996.805
535.576;47320.262;  -10.612;48882.852
536.162;44992.516;   -7.322;46942.285
536.747;45517.746;   -9.360;45711.746
537.333;47479.492;  -10.450;48510.180
537.918;49674.668;  -12.610;50439.891
538.503;51880.992;  -12.132;50863.711
539.088;49667.352;  -10.831;50906.922
539.673;46709.762;  -11.220;52621.965
540.259;47840.297;  -11.481;52368.094
540.844;51188.414;  -11.462;50879.109
541.429;53160.793;   -7.869;52077.777
542.014;53999.715;  -11.859;52716.695
542.599;52976.688;  -11.061;52363.281
543.184;52382.996;  -12.300;53187.137
543.769;51476.016;   -9.369;54697.605
544.354;51318.160;  -12.020;53913.914
544.938;47905.102;  -10.350;49680.164
545.523;44918.742;  -10.841;47386.277
546.108;47073.871;   -8.579;49151.949
546.693;49645.297;   -8.818;51384.637
547.278;50918.953;  -11.331;51853.254
547.862;47183.434;  -10.292;51173.750
548.447;42871.031;   -8.349;51691.395
549.031;43932.762;  -10.838;52456.703
549.616;49963.461;  -11.681;52714.516
550.201;53703.742;  -11.140;52414.598
550.785;51831.715;   -8.649;52355.059
551.370;51772.414;  -11.889;54589.453
551.954;51510.023;  -11.239;58267.348
552.538;50876.414;   -8.850;59062.176
553.123;51688.863;  -10.829;58115.285
553.707;52232.680;   -8.887;56556.285
554.291;51553.656;  -10.430;56201.668
554.876;49450.492;   -9.799;55335.762
555.460;50616.469;  -10.018;54155.703
556.044;51947.129;   -7.307;53721.484
556.628;48323.508;  -12.229;53731.016
557.212;45020.766;   -9.820;54312.531
557.796;44448.953;   -9.109;53797.773
558.380;46005.277;   -9.707;56145.984
558.964;45061.848;  -10.980;57277.930
559.548;45728.375;  -12.010;56459.641
560.132;49446.520;   -7.928;54434.543
560.716;51082.594;  -10.247;54800.617
561.300;51202.770;  -11.250;57606.945
561.884;53182.598;  -10.568;58972.445
562.467;51576.738;   -9.727;57327.570
563.051;50025.699;  -11.847;54962.434
563.635;48475.063;  -10.747;52594.473
564.219;44933.387;  -13.108;50610.410
564.802;41834.105;  -11.417;49551.180
565.386;43036.355;  -10.457;48370.953
565.969;44625.887;   -8.959;48178.871
566.553;43814.938;  -10.328;49957.305
567.136;42798.258;  -10.257;50369.594
567.720;42688.160;  -10.186;49492.004
568.303;42789.672;  -10.027;50616.352
568.887;43708.070;  -10.397;50727.148
569.470;42082.418;   -8.185;51698.379
570.053;41221.391;  -11.596;52122.078
570.637;41164.645;  -11.378;52536.438
571.220;41120.129;   -9.138;51186.098
571.803;40187.813;   -7.675;51032.762
572.386;38603.047;   -8.976;49609.887
572.969;36044.496;  -12.477;48285.926
573.552;37176.582;   -9.767;47624.285
574.135;37618.109;   -8.175;45498.641
574.718;34082.176;  -11.096;41970.434
575.301;32206.926;  -11.966;41447.137
575.884;30331.674;  -12.836;40923.836
576.467;34348.063;   -9.116;45267.723
577.050;35268.133;  -10.536;48175.543
577.633;36353.230;  -11.027;47729.328
578.216;37904.133;   -9.946;47579.793
578.799;38171.707;   -9.645;47820.996
579.381;39144.293;   -9.446;48115.551
579.964;40616.367;  -12.217;47333.766
580.547;41451.371;  -10.586;46668.969
581.129;41765.500;   -8.374;44466.141
581.712;39619.434;  -10.434;44164.922
582.294;36802.953;  -10.896;46477.855
582.877;36946.191;   -8.906;48244.254
583.459;38250.609;   -9.994;47437.895
584.042;39058.285;  -10.084;46943.219
584.624;38911.637;  -13.534;46792.227
585.206;36800.246;  -12.716;46557.250
585.789;37631.703;  -11.614;45793.773
586.371;35952.871;  -10.203;43836.391
586.953;33070.168;  -10.314;42972.492
587.536;33482.672;   -9.776;42487.211
588.118;35084.855;   -9.821;42086.414
588.700;36481.590;  -10.073;43389.930
589.282;34893.242;  -12.395;43646.039
589.864;34268.195;  -11.514;43438.109
590.446;34308.492;  -10.803;43151.926
591.028;33319.598;  -11.043;42781.867
591.610;33526.313;  -13.244;42839.098
592.192;33433.930;  -11.095;42820.402
592.774;31820.289;  -10.823;40724.277
593.356;31032.588;  -11.052;39874.789
593.937;32573.469;  -11.664;39980.648
594.519;36356.941;  -10.454;42069.633
595.101;39230.113;  -10.322;42976.031
595.683;38494.945;  -10.042;44084.441
596.264;34706.336;  -14.334;43478.797
596.846;35930.699;  -10.863;43803.672
597.427;34823.758;   -9.901;42986.934
598.009;33193.051;  -10.911;42832.219
598.591;33764.043;  -10.483;42580.086
599.172;35401.949;   -9.663;43061.805
599.753;36392.211;  -10.631;41691.469
600.335;36568.145;   -9.371;40692.520
600.916;34392.867;  -13.992;39982.422
601.498;34021.969;   -8.352;40318.617
602.079;34455.895;   -8.411;40670.609
602.660;33943.254;  -10.841;41450.898
603.241;33573.805;  -12.963;41137.738
603.823;34060.805;  -11.523;38868.797
604.404;33511.371;  -11.881;38182.785
604.985;34417.793;  -11.721;38078.047
605.566;34371.246;   -9.293;38056.633
606.147;33037.531;  -10.940;37020.418
606.728;34698.582;  -11.840;37883.359
607.309;35563.914;  -11.781;38748.273
607.890;35764.398;  -11.262;38850.230
608.471;34201.969;  -10.111;37457.918
609.051;34155.906;   -7.709;36066.457
609.632;31335.877;  -12.409;35991.074
610.213;31327.547;  -10.811;37402.641
610.794;32624.207;  -11.630;38383.363
611.374;36514.813;   -8.030;40562.387
611.955;36955.207;  -10.809;38533.727
612.536;35600.328;  -10.531;36951.789
613.116;35569.441;  -12.820;37197.891
613.697;37163.801;  -11.419;38411.125
614.277;38163.867;   -9.768;38673.938
614.858;34633.887;  -10.251;37075.863
615.438;30832.215;  -11.981;35092.906
616.019;28390.320;   -8.978;33666.301
616.599;30808.590;  -12.219;34189.023
617.179;33245.809;  -14.170;36952.047
617.760;34146.508;   -9.211;39582.574
618.340;34144.355;   -9.018;38943.977
618.920;34398.316;   -9.249;37594.156
619.500;34569.844;  -12.728;37866.938
620.080;35168.297;  -12.939;37869.043
620.660;36206.508;  -11.586;36868.617
621.241;35425.777;  -11.538;36352.309
621.821;33929.914;  -11.398;35459.520
622.401;32426.102;  -10.179;35207.414
622.980;32140.504;  -11.587;35980.422
623.560;33667.129;  -12.888;37351.328
624.140;32380.309;  -13.149;34388.582
624.720;28133.980;   -9.928;32368.764
625.300;27587.537;  -10.869;32638.629
625.880;30312.084;   -8.617;34599.035
626.459;31528.268;  -12.138;36831.738
627.039;34142.922;  -12.267;38299.098
627.619;37640.285;   -7.476;38289.574
628.198;39048.508;  -11.347;37220.695
628.778;36316.156;  -11.678;37632.563
629.357;33773.637;  -12.438;38003.012
629.937;33102.750;   -9.576;38402.039
630.516;32638.191;  -11.096;37868.801
631.096;33657.602;  -11.828;35760.410
631.675;35243.527;  -11.565;35225.219
632.254;35832.352;  -11.845;35130.289
632.834;37287.559;  -11.545;35794.570
633.413;36702.410;  -10.887;35788.922
633.992;36419.613;  -10.175;34532.863
634.571;36982.664;   -9.704;33590.113
635.151;35123.203;  -10.815;34943.863
635.730;33532.496;  -11.617;35352.523
636.309;33426.785;  -10.836;35366.605
636.888;34259.590;   -9.755;36165.637
637.467;34148.332;  -11.684;37515.902
638.046;34306.977;  -11.987;39288.695
638.625;34183.832;  -10.455;38279.699
639.204;33961.523;  -11.234;37741.598
639.782;34618.734;  -12.023;38364.551
640.361;32841.188;  -11.506;36740.621
640.940;29471.082;  -12.316;34950.082
641.519;27376.699;  -11.616;34137.398
642.097;29887.855;   -9.266;35654.258
642.676;33863.480;  -12.936;35637.957
643.255;34523.824;   -9.966;36567.074
643.833;34891.027;   -8.916;37809.434
644.412;32948.625;  -10.936;37337.293
644.990;32337.775;  -12.176;37018.531
645.569;33301.871;  -12.246;36518.469
646.147;36392.215;  -12.107;36186.430
646.726;39285.164;  -12.937;36267.688
647.304;35944.441;  -12.547;36647.625
647.882;34439.340;  -12.597;39286.742
648.461;33669.398;   -9.427;39157.703
649.039;33904.465;   -8.937;35412.883
649.617;34851.879;  -11.067;34744.918
650.195;33206.953;  -10.657;35403.098
650.773;30484.396;  -10.097;35053.797
651.352;29881.105;  -11.887;33756.816
651.930;28819.961;  -13.557;31868.773
652.508;28656.738;  -11.767;33121.551
653.086;31597.213;  -10.777;33564.793
653.663;34372.441;  -12.067;34054.668
654.241;37050.336;  -14.918;35693.309
654.819;36780.160;  -11.788;36422.906
655.397;34598.637;  -11.268;38213.484
655.975;32893.230;  -11.738;39507.625
656.553;31248.094;  -11.018;39498.223
657.130;29809.113;  -12.848;40395.480
657.708;28319.820;  -10.098;39242.020
658.286;29303.063;  -11.678;38920.020
658.863;31941.021;  -11.498;40202.898
659.441;35054.383;  -11.008;39677.938
660.018;37185.840;  -11.048;40413.355
660.596;37841.070;  -12.058;39931.414
661.173;38236.570;  -14.158;39604.531
661.750;37675.379;  -12.298;39700.070
662.328;36964.391;  -10.699;39292.809
662.905;36196.441;  -12.119;38235.648
663.482;32121.441;  -11.829;36212.305
664.060;28373.953;  -11.009;35944.945
664.637;31751.814;  -10.369;35170.785
665.214;34457.422;  -10.459;34197.523
665.791;33876.188;  -12.599;34549.520
666.368;31325.564;  -12.919;35118.578
666.945;29409.617;  -10.699;36019.418
667.522;30544.111;  -11.359;36048.438
668.099;31111.266;  -13.529;36243.914
668.676;29994.791;  -10.229;35958.875
669.253;29690.623;   -9.279;37384.730
669.830;29086.668;  -11.370;36779.629
670.407;28607.965;  -10.950;35231.289
670.984;29543.252;  -12.850;35544.270
671.560;28624.531;   -8.440;35466.867
672.137;29602.039;  -13.520;34280.863
672.714;31420.203;  -13.620;34632.863
673.290;32111.520;  -10.450;35135.422
673.867;30911.094;  -10.960;36114.480
674.443;31841.230;  -13.300;36152.859
675.020;30243.609;  -12.370;35327.238
675.596;29628.158;  -11.250;35795.176
676.173;30161.766;  -11.080;35430.355
676.749;29704.855;  -13.220;33549.516
677.326;30644.813;  -13.000;32210.012
677.902;30553.105;  -12.701;32068.871
678.478;29200.336;  -12.801;32583.891
679.054;29483.467;   -8.601;32088.928
679.631;30751.982;  -12.631;30978.848
680.207;32066.795;   -9.451;33160.887
680.783;31218.523;  -11.701;35570.363
681.359;31214.646;  -12.701;36125.184
681.935;32973.590;  -13.271;35240.922
682.511;35284.297;  -10.791;34429.961
683.087;33222.453;  -10.791;34463.680
683.663;29741.908;   -8.121;34648.898
684.239;27574.551;  -13.261;34546.457
684.815;28439.184;  -10.581;35586.375
685.390;30144.596;   -9.961;35821.895
685.966;29488.594;  -11.182;35085.871
686.542;28694.844;  -13.512;34198.230
687.118;26847.764;  -11.472;32847.707
687.693;25744.654;  -10.152;32794.027
688.269;25856.828;  -14.442;33072.367
688.844;24846.164;  -11.852;33141.664
689.420;23909.416;  -13.942;33965.742
689.995;25264.764;   -9.702;34655.523
690.571;27119.133;  -11.312;33576.742
691.146;27492.188;  -14.332;32657.219
691.722;27235.893;  -11.192;32526.979
692.297;28010.100;  -10.962;33014.617
692.872;29384.986;  -11.082;34012.254
693.448;29982.432;  -14.732;34237.434
694.023;29327.891;  -12.363;34142.672
694.598;27658.160;  -12.393;34132.031
695.173;28512.439;  -11.023;34205.250
695.748;30006.785;  -12.743;32882.488
696.323;29389.178;  -11.103;32864.906
696.898;28864.027;   -8.123;33170.004
697.473;28525.439;  -12.603;32432.984
698.048;28588.834;  -12.553;31649.303
698.623;29874.664;  -12.573;30778.141
699.198;29491.225;  -12.743;31140.119
699.773;28644.410;  -12.843;31764.299
700.348;29091.254;  -16.683;31780.816
700.922;30292.619;  -11.403;32046.375
701.497;31992.994;  -11.253;32603.574
702.072;31407.578;  -10.044;34799.871
702.646;30862.416;  -13.054;35793.172
703.221;31679.031;  -11.414;35201.590
703.795;30469.805;  -10.644;34764.527
704.370;27979.684;  -13.484;34307.367
704.944;27219.643;  -12.144;33509.887
705.519;27034.500;  -12.024;31388.584
706.093;28765.066;  -11.234;31340.104
706.668;30167.990;   -9.874;32630.281
707.242;29661.168;  -12.404;32728.779
707.816;27772.896;  -10.644;32947.238
708.390;26898.961;  -11.174;33277.855
708.965;26843.998;  -10.324;33834.336
709.539;27498.908;  -12.014;33709.273
710.113;27733.982;  -12.295;33044.313
710.687;29383.748;  -10.965;31953.992
711.261;31602.297;  -13.685;30505.949
711.835;30176.064;  -15.335;30262.369
712.409;28870.795;  -13.785;31254.447
712.983;28757.949;  -10.525;32754.986
713.557;26701.305;  -13.175;34018.824
714.131;26391.492;  -13.245;34579.625
714.704;29467.158;  -13.175;33890.262
715.278;31964.068;  -11.545;33531.102
715.852;30699.609;  -10.975;33601.660
716.425;29175.111;  -10.075;33515.117
716.999;29749.426;  -12.185;33185.555
717.573;31896.707;   -9.685;33905.996
718.146;32430.988;  -10.516;35199.293
718.720;31073.262;  -12.106;35060.551
719.293;29285.563;  -12.386;34973.230
719.867;29133.887;  -12.456;36394.449
720.440;29288.744;  -10.686;36663.008
721.013;29636.805;  -12.596;35102.426
721.587;31234.035;  -13.956;33985.266
722.160;33056.063;   -9.806;33524.965
722.733;33495.871;  -11.676;32987.043
723.306;32968.430;  -14.276;33066.301
723.880;30920.129;  -12.126;33399.500
724.453;28581.389;  -10.156;33468.297
725.026;28287.229;  -12.956;33816.637
725.599;28265.109;  -11.676;32797.996
726.172;28536.004;  -12.337;33187.434
726.745;28665.270;  -11.277;35136.613
727.318;28596.145;  -11.927;35751.730
727.891;27943.012;  -13.607;35890.430
728.463;25842.740;  -11.327;34822.090
729.036;25793.463;  -11.917;32895.086
729.609;27310.980;  -12.697;31823.225
730.182;27925.180;  -11.787;31445.283
730.754;27526.869;  -12.957;32373.223
731.327;27219.039;  -11.017;33676.820
731.900;26990.787;  -12.797;33417.000
732.472;26489.252;  -10.677;31978.498
733.045;26115.943;  -12.797;30368.777
733.617;26212.000;  -13.908;30574.215
734.190;25005.377;  -12.258;31280.975
734.762;25142.967;  -13.438;31674.412
735.334;26426.748;  -11.758;31247.291
735.907;28996.766;  -11.158;29876.211
736.479;32068.613;  -11.258;29808.488
737.051;32500.795;  -10.918;30233.547
737.623;31617.736;  -11.038;31469.086
738.195;33196.539;  -12.188;31784.225
738.768;30770.971;  -11.378;32120.523
739.340;24707.596;  -12.598;32094.342
739.912;23095.479;  -11.568;31312.680
740.484;25035.367;   -9.348;31946.238
741.056;27753.457;  -12.628;32984.059
741.628;29529.607;  -13.349;33897.715
742.199;28270.400;  -11.309;33213.016
742.771;28317.430;  -12.699;31369.113
743.343;29020.184;  -11.919;31865.473
743.915;28687.084;  -11.679;32388.631
744.487;27208.754;  -12.249;31079.568
745.058;25346.537;  -11.119;30570.107
745.630;24517.980;   -9.439;29970.127
746.201;23804.756;  -11.949;29186.766
746.773;23698.098;  -12.639;28805.723
747.344;24760.555;  -11.039;29591.223
747.916;26882.500;  -12.549;31412.201
748.487;25766.363;  -12.659;32194.898
749.059;24008.627;  -13.059;32533.719
749.630;23255.432;  -12.080;32158.518
750.201;21867.461;  -13.100;30855.395
750.773;21326.248;  -15.310;28622.555
751.344;21323.285;  -12.240;28405.732
751.915;21645.625;  -11.960;28461.551
752.486;20695.043;  -13.200;27842.850
753.057;19194.191;  -15.230;27845.008
753.628;20247.160;  -13.130;27728.107
754.199;22616.455;  -12.720;27381.086
754.770;22718.590;  -10.680;25882.203
755.341;21117.578;  -11.010;25886.184
755.912;20440.295;  -12.990;26050.861
756.483;19967.117;  -11.110;26798.779
757.054;19753.781;  -12.190;27048.238
757.625;19815.051;  -13.981;26294.838
758.195;20057.838;  -11.041;26142.076
758.766;21217.201;  -11.861;26392.234
759.337;21444.438;  -11.461;26334.594
759.907;20560.734;  -15.001;27579.652
760.478;19409.457;   -9.681;28352.770
761.048;18371.855;  -12.421;27325.088
761.619;19085.984;  -11.761;26460.428
762.189;19618.348;  -12.391;26029.826
762.760;19198.988;  -10.201;26430.145
763.330;19956.791;  -10.811;26670.902
763.900;20464.422;  -10.261;26603.021
764.471;19334.973;  -13.061;25542.740
765.041;17814.033;  -11.051;24358.459
765.611;17831.217;  -11.032;23991.297
766.181;18022.939;  -10.532;24470.236
766.751;18357.396;  -13.502;24845.975
767.321;19579.621;  -11.392;24533.633
767.891;21337.064;  -11.522;24916.492
768.461;22545.047;  -13.672;24776.771
769.031;20169.617;  -14.652;24757.988
769.601;17416.869;  -10.182;24181.088
770.171;16148.516;  -11.752;23670.387
770.741;15078.977;  -12.272;22960.045
771.311;14882.133;  -13.112;22917.523
771.880;15901.796;  -14.122;23562.941
772.450;16679.248;  -11.782;24216.500
773.020;16893.863;  -12.642;24140.398
773.589;16131.691;  -13.043;24414.857
774.159;15668.273;  -11.783;23858.717
774.729;16466.266;  -13.473;22942.135
775.298;17086.445;  -14.523;22324.033
775.867;16539.607;  -12.013;21140.313
776.437;15854.725;  -12.113;20838.092
777.006;15638.011;  -13.543;20599.510
777.576;16263.617;  -12.523;20508.809
778.145;16383.643;  -12.173;20732.947
778.714;15693.715;  -12.153;21062.465
779.283;14909.344;  -11.833;20949.664
779.853;14946.672;  -13.483;20508.623
780.422;14965.187;  -12.933;20649.082
780.991;14557.509;  -13.173;21527.520
781.560;14446.743;  -10.224;22632.658
782.129;14908.428;  -12.684;23048.277
782.698;14884.557;  -11.284;23438.555
783.267;14761.774;  -11.684;23267.734
783.836;14535.649;  -10.974;22415.133
784.404;14037.454;  -13.534;20443.152
784.973;13107.032;  -16.734;19699.150
785.542;11946.660;  -12.594;19763.828
786.111;11653.346;  -11.644;20341.408
786.679;12785.701;  -11.384;20207.967
787.248;13164.964;  -12.014;19516.465
787.817;11940.016;  -12.804;18900.363
788.385;10596.551;  -11.994;17879.121
788.954;10904.931;  -12.564;17658.301
789.522;11914.031;  -12.225;17788.879
790.090;11980.425;  -13.775;18118.277
790.659;11854.090;  -12.485;18338.736
791.227;12593.753;  -12.295;18508.615
791.795;13230.382;  -13.415;17898.254
792.364;13609.312;  -12.995;17295.133
792.932;13263.941;   -8.365;16822.051
793.500;12130.167;  -11.925;17040.148
794.068;12249.831;  -13.245;17179.787
794.636;13035.457;  -13.815;16664.246
795.204;13017.094;  -13.375;16524.545
795.772;12789.438;  -12.125;17274.564
796.340;11999.430;  -13.855;17891.002
796.908;10486.218;  -13.456;17648.561
797.476; 9726.184;  -13.116;17064.080
798.044; 9884.939;  -13.226;16672.777
798.612;10130.794;  -11.236;17023.996
799.180;10035.729;  -10.476;16561.615
799.747; 9622.006;  -11.746;15962.773
800.315; 9129.470;  -12.366;15296.992
800.883; 8472.875;  -14.616;14801.771
801.450; 8584.677;  -11.996;14534.430
802.018; 9442.020;  -11.206;14173.248
802.585; 9927.079;  -12.466;14029.547
803.153; 9507.052;  -12.846;13836.846
803.720; 8900.441;  -12.136;13567.324
804.287; 9011.575;  -10.966;13360.622
804.855; 9149.523;   -9.797;13681.981
805.422; 8373.419;  -13.037;13536.560
805.989; 7686.772;  -12.697;13355.958
806.556; 7876.721;  -11.737;13747.896
807.124; 8570.549;  -11.997;13987.376
807.691; 8356.623;  -13.997;14038.674
808.258; 7716.132;  -10.927;14120.152
808.825; 7900.748;  -13.727;13860.111
809.392; 7954.226;  -11.847;13268.790
809.959; 7952.941;  -14.217;12680.389
810.526; 7921.428;   -8.277;12427.308
811.093; 8071.854;   -9.647;12030.105
811.659; 8116.772;  -10.987;11653.664
812.226; 7515.879;  -13.447;11637.183
812.793; 7087.925;  -14.418;11611.521
813.360; 7285.472;  -13.908;11885.181
813.926; 7739.163;  -12.918;12770.539
814.493; 7935.897;  -14.888;12677.638
815.060; 7542.400;  -12.758;11974.336
815.626; 7211.179;  -13.478;11594.715
816.193; 7148.673;  -13.898;11579.474
816.759; 7239.337;  -13.588;11666.972
817.325; 7187.875;  -12.018;11325.530
817.892; 6875.627;  -14.068;11105.369
818.458; 6967.023;  -13.458;10843.928
819.024; 6885.234;  -11.968;10714.406
819.591; 6666.595;  -11.028;10469.165
820.157; 6752.643;  -12.088;10235.523
820.723; 6865.175;  -12.599;10847.563
821.289; 6564.857;  -10.419;11040.980
821.855; 6366.113;  -10.939;10357.100
822.421; 6359.446;  -12.539; 9978.918
822.987; 6329.911;  -13.259; 9754.177
823.553; 6143.456;  -15.369;10065.755
824.119; 6017.919;  -10.779;10036.294
824.685; 6018.449;   -9.999;10029.192
825.251; 5865.709;  -11.819;10199.230
825.816; 5787.168;  -13.369; 9820.189
826.382; 5625.840;  -12.679; 9297.248
826.948; 5157.931;  -11.199; 9381.347
827.513; 4987.649;  -11.179; 9450.726
828.079; 5098.562;  -13.489; 9472.444
828.645; 5209.177;  -12.500; 9292.643
829.210; 5211.901;  -15.120; 9065.341
829.776; 5175.148;  -12.590; 9132.620
830.341; 5283.090;  -11.540; 9092.878
830.906; 5618.922;  -12.400; 9078.557
831.472; 5602.700;  -12.720; 8534.535
832.037; 4944.128;  -11.490; 8677.874
832.602; 4298.062;  -14.380; 8628.692
833.167; 4035.362;  -12.780; 8879.031
833.733; 4277.863;  -11.100; 9189.790
834.298; 4651.850;  -12.080; 9052.608
834.863; 4534.146;  -13.910; 8895.087
835.428; 4242.244;  -13.470; 8824.266
835.993; 4079.248;  -11.760; 8845.385
836.558; 4257.929;  -12.731; 8888.563
837.123; 4415.140;  -12.431; 8966.582
837.688; 4272.187;  -11.241; 8617.860
838.253; 4088.427;  -13.681; 8590.699
838.817; 4181.619;  -12.531; 8443.797
839.382; 4290.273;  -12.671; 8799.356
839.947; 4327.783;  -11.541; 8810.595
840.511; 4431.627;  -12.021; 8796.394
841.076; 4498.385;  -13.071; 8347.231
841.641; 4721.666;  -11.411; 8224.330
842.205; 5004.102;  -13.671; 8223.349
842.770; 4920.771;  -11.291; 8622.107
843.334; 4618.661;  -12.951; 8410.386
843.898; 4340.579;  -11.221; 8337.465
844.463; 4399.686;  -11.322; 8506.283
845.027; 4388.381;  -11.412; 8280.962
845.591; 4159.889;  -11.512; 8231.141
846.156; 4056.775;  -14.042; 7969.179
846.720; 4115.779;  -12.152; 7768.278
847.284; 3924.205;  -10.922; 7630.957
847.848; 3726.999;  -10.962; 7472.395
848.412; 3510.928;  -14.612; 7437.394
848.976; 3524.775;  -11.492; 7674.592
849.540; 3808.298;   -9.172; 7836.011
850.104; 3999.698;  -11.232; 7913.669
850.668; 3920.061;  -15.182; 7694.508
851.232; 3798.862;  -15.332; 7756.887
851.796; 3748.513;  -13.703; 7926.545
852.359; 3823.384;  -11.113; 7827.844
852.923; 3935.508;  -11.843; 7641.163
853.487; 3906.984;  -11.173; 7342.501
854.050; 3788.401;  -13.443; 7042.820
854.614; 3744.824;  -13.823; 7151.338
855.177; 3675.170;  -16.393; 7105.077
855.741; 3642.328;  -11.693; 6989.675
856.304; 3633.678;  -10.843; 6596.634
856.868; 3535.334;  -13.783; 6356.272
857.431; 3313.982;  -11.953; 6468.571
857.995; 3047.532;  -13.683; 6373.210
858.558; 3009.919;  -11.433; 6324.448
859.121; 3117.995;  -12.493; 6408.327
859.684; 3035.004;  -12.384; 6347.886
860.247; 2713.672;  -14.774; 6321.264
860.810; 2462.004;  -13.154; 6301.903
861.374; 2439.415;  -11.264; 6607.881
861.937; 2486.378;  -15.424; 6408.200
862.500; 2474.079;  -12.854; 6572.639
863.062; 2472.934;  -12.344; 6387.297
863.625; 2490.582;  -13.314; 6190.836
864.188; 2579.573;  -14.724; 5807.254
864.751; 2767.733;  -13.464; 5682.413
865.314; 3104.555;  -11.684; 5547.492
865.876; 3307.094;  -11.104; 5500.150
866.439; 3235.140;  -12.344; 5415.909
867.002; 3055.807;  -13.494; 5501.567
867.564; 2795.314;  -10.935; 5413.946
868.127; 2596.053;  -12.665; 5160.325
868.689; 2549.843;  -14.515; 5133.183
869.252; 2596.496;  -13.425; 5252.382
869.814; 2758.387;  -11.595; 5297.141
870.377; 2862.739;  -12.175; 5390.919
870.939; 2761.255;  -10.265; 5599.898
871.501; 2631.598;  -12.375; 5248.336
872.063; 2542.364;  -14.355; 4854.235
872.626; 2460.606;  -14.435; 4817.074
873.188; 2365.770;  -12.415; 4987.732
873.750; 2388.107;  -14.555; 4868.651
874.312; 2315.300;  -11.185; 4779.330
874.874; 2115.949;  -12.715; 4866.348
875.436; 2014.099;  -13.196; 4718.887
875.998; 1987.885;  -11.426; 4660.005
876.560; 1903.875;   -9.786; 4462.964
877.122; 1856.178;  -12.796; 4145.042
877.683; 1858.390;  -13.226; 4056.481
878.245; 1849.299;  -12.036; 3950.740
878.807; 1836.521;  -11.536; 4058.958
879.369; 1813.182;  -10.806; 3954.677
879.930; 1720.462;  -13.946; 3941.495
880.492; 1590.250;  -11.876; 4067.014
881.053; 1556.024;  -13.216; 3859.633
881.615; 1615.411;  -12.226; 3776.071
882.176; 1648.393;  -12.946; 3734.750
882.738; 1584.437;  -10.736; 3678.489
883.299; 1506.270;  -12.057; 3405.407
883.860; 1468.110;  -12.677; 3351.106
884.422; 1422.595;  -14.097; 3394.044
884.983; 1318.679;  -13.667; 3166.443
885.544; 1183.116;  -10.717; 3189.802
886.105; 1088.259;  -14.357; 3160.360
886.666; 1075.107;  -14.287; 3093.059
887.227; 1082.320;  -14.297; 2941.957
887.788; 1073.629;  -13.137; 2974.836
888.349;  991.564;  -14.637; 2721.214
888.910;  911.474;  -12.247; 2696.493
889.471;  901.431;  -10.577; 2560.172
890.032;  897.237;  -12.937; 2558.190
890.593;  849.596;  -12.487; 2567.669
891.153;  783.788;  -11.898; 2460.307
891.714;  772.743;  -14.278; 2372.046
892.275;  778.279;  -13.308; 2309.505
892.835;  725.856;  -12.058; 2382.543
893.396;  648.998;  -15.268; 2295.502
893.956;  593.989;  -13.278; 2162.420
894.517;  560.298;  -11.968; 2125.439
895.077;  548.767;  -12.798; 2086.978
895.638;  530.408;  -11.908; 2126.316
896.198;  506.961;  -13.288; 1838.275
896.758;  485.058;  -12.198; 1892.813
897.319;  458.806;  -13.048; 1792.232
897.879;  420.463;  -13.718; 1762.751
898.439;  382.601;  -14.138; 1661.149
898.999;  370.215;  -13.659; 1781.468
899.559;  358.656;  -14.699; 1703.347
900.119;  337.122;  -14.339; 1537.525
900.679;  313.952;  -11.789; 1638.384
901.239;  292.036;  -13.629; 1527.902
901.799;  275.827;  -13.679; 1456.441
902.359;  262.872;  -13.679; 1357.140
902.919;  252.076;  -14.159; 1331.118
903.479;  243.194;  -13.419; 1317.257
904.038;  233.290;  -14.899; 1262.595
904.598;  223.310;  -14.339; 1152.034
905.158;  217.633;  -13.959; 1240.893
905.717;  213.765;  -12.749; 1233.691
906.277;  206.034;  -11.889; 1217.330
906.836;  198.506;  -12.870; 1222.408
907.396;  195.919;  -11.790; 1193.047
907.955;  192.500;  -13.750; 1182.526
908.515;  185.178;  -14.760; 1099.364
909.074;  179.662;  -12.540; 1092.863
909.633;  173.449;  -12.120; 1069.121
910.192;  171.446;  -12.550; 1196.460
910.752;  169.718;  -12.760; 1029.960
911.311;  166.893;  -14.750; 1009.780
911.870;  163.287;  -13.860;  971.460
912.429;  161.369;  -13.480; 1094.080
912.988;  158.095;  -12.370; 1081.060
913.547;  152.818;  -14.670;  940.380
914.106;  150.123;  -12.800;  999.420
914.665;  148.059;  -11.370;  984.020
915.224;  146.728;  -11.430; 1035.760
915.782;  145.151;  -12.260;  922.560
916.341;  146.626;  -12.540; 1049.840
916.900;  143.745;  -12.540;  925.260
917.458;  142.361;  -13.480;  884.220
918.017;  141.573;  -12.470;  942.600
918.576;  139.358;  -13.450;  904.440
919.134;  138.934;  -12.890;  837.980
919.693;  137.610;  -15.480;  893.060
920.251;  135.618;  -14.420;  876.500
920.809;  134.754;  -12.170;  839.580
921.368;  135.666;  -13.650;  885.360
921.926;  135.793;  -12.750;  842.940
922.484;  135.192;  -14.150;  903.360
923.042;  137.237;  -15.100;  880.340
923.601;  140.737;  -10.990;  998.680
924.159;  140.093;  -12.470;  935.560
924.717;  137.817;  -15.640;  841.080
925.275;  139.972;  -12.380;  903.240
925.833;  138.821;  -12.710;  779.320
926.391;  140.040;  -11.200;  938.380
926.949;  141.100;  -16.000;  857.680
927.506;  142.432;  -12.260;  903.500
928.064;  143.142;  -11.300;  877.580
928.622;  143.355;  -13.750;  880.100
929.180;  142.837;  -15.290;  814.180
929.737;  141.300;  -14.500;  808.540
930.295;  143.571;  -10.630;  928.480
930.853;  147.313;  -14.590;  849.100
931.410;  148.917;  -14.450;  821.120
931.968;  151.297;  -14.390;  940.660
932.525;  151.866;  -13.050;  909.380
933.082;  152.270;  -15.620;  811.440
933.640;  154.356;  -15.650;  925.900
934.197;  155.851;  -13.610;  886.360
934.754;  159.696;  -13.320;  897.780
935.312;  162.025;  -13.370;  863.340
935.869;  165.248;  -12.780; 1012.980
936.426;  164.869;  -14.480;  872.800
936.983;  165.042;  -13.180;  889.020
937.540;  166.059;  -15.710;  838.280
938.097;  166.792;  -14.980;  940.120
938.654;  169.279;  -13.060;  898.860
939.211;  170.534;  -12.760;  952.480
939.768;  170.635;  -16.230;  915.420
940.324;  172.346;  -10.940;  904.200
940.881;  170.567;  -12.570;  878.500
941.438;  169.963;  -13.650; 1021.200
941.995;  169.594;  -13.300;  992.560
942.551;  169.740;  -15.800;  875.620
943.108;  169.296;  -14.180;  937.920
943.664;  167.973;  -13.890;  869.340
944.221;  171.204;  -12.640; 1088.140
944.777;  167.687;  -14.700;  869.680
945.334;  166.499;  -13.010;  884.840
945.890;  168.691;  -13.480;  946.480
946.446;  168.509;  -14.920;  947.020
947.003;  166.936;  -13.860;  964.940
947.559;  167.189;  -12.000; 1063.040
948.115;  167.395;  -10.510; 1026.540
948.671;  166.237;  -12.760;  967.300
949.227;  161.991;  -15.390;  859.560
949.783;  159.157;  -15.570;  858.900
950.339;  158.867;  -12.800;  991.000
950.895;  156.621;  -13.780; 1023.840
951.451;  156.181;  -13.810;  925.280
952.007;  158.541;  -12.390;  998.540
952.563;  158.687;  -11.980;  937.780
953.118;  156.611;  -14.070;  904.940
953.674;  157.344;  -14.140;  935.780
954.230;  161.338;  -12.680;  949.640
954.785;  163.399;  -12.770;  936.640
955.341;  159.707;  -11.450;  998.160
955.897;  152.551;  -15.350;  834.660
956.452;  148.112;  -14.200;  953.840
957.008;  145.789;  -10.820; 1083.640
957.563;  143.418;  -13.200; 1009.540
958.118;  143.039;  -14.460;  877.700
958.674;  144.226;  -13.840;  946.780
959.229;  143.363;  -10.670; 1013.980
959.784;  143.238;  -17.040;  832.400
960.339;  146.354;  -12.970; 1001.280
960.894;  148.573;  -12.700;  963.760
961.449;  152.260;  -13.790;  859.960
962.004;  158.984;  -11.760; 1212.840
962.559;  155.276;  -14.840;  860.140
963.114;  150.400;  -14.530;  742.480
963.669;  147.760;  -12.780;  915.500
964.224;  143.848;  -14.330;  874.340
964.779;  137.736;  -14.380;  828.420
965.334;  132.964;  -12.460; 1017.860
965.888;  129.575;  -13.490;  875.360
966.443;  129.263;  -14.140;  972.380
966.998;  127.136;  -16.240;  819.460
967.552;  126.749;  -12.730;  908.380
968.107;  123.721;  -14.510;  868.300
968.661;  124.929;  -11.850;  922.440
969.216;  122.170;  -14.370;  856.280
969.770;  120.955;  -13.010;  917.200
970.324;  120.037;  -12.460;  923.140
970.879;  120.243;  -11.580;  947.180
971.433;  121.623;  -13.130;  952.720
971.987;  119.437;  -12.360;  895.340
972.541;  116.922;  -14.330;  917.100
973.095;  112.830;  -13.310; 1009.460
973.649;  109.790;  -15.830;  809.480
974.203;  109.314;  -15.830;  829.040
974.757;  112.071;  -13.480;  855.220
975.311;  114.660;  -13.720;  872.600
975.865;  115.460;  -15.780;  881.820
976.419;  114.184;  -14.290;  857.400
976.973;  112.348;  -13.210;  849.620
977.526;  109.538;  -12.300;  949.920
978.080;  105.135;  -14.840;  796.780
978.634;  104.029;  -13.100;  921.320
979.187;  100.126;  -12.300;  905.400
979.741;  100.732;  -12.020; 1018.380
980.294;   97.768;  -14.590;  789.160
980.848;   96.011;  -14.390;  717.220
981.401;   96.527;  -14.280;  816.540
981.955;   96.330;  -11.920;  844.300
982.508;   92.268;  -15.790;  746.340
983.061;   92.579;  -12.070;  915.260
983.615;   89.024;  -13.260;  798.800
984.168;   87.532;  -15.540;  770.080
984.721;   86.323;  -13.230;  880.760
985.274;   83.721;  -11.820;  867.500
985.827;   81.669;  -13.510;  834.220
986.380;   79.970;  -14.840;  721.340
986.933;   81.911;  -13.970;  864.800
987.486;   80.458;  -12.450;  861.920
988.039;   78.280;  -11.170;  863.100
988.591;   76.115;  -13.070;  893.260
989.144;   73.022;  -15.530;  737.260
989.697;   72.288;  -14.300;  758.740
990.250;   70.609;  -13.310;  858.100
990.802;   69.115;  -14.490;  755.860
991.355;   69.558;  -12.980;  974.880
991.907;   67.299;  -13.715;  864.320
992.460;   65.041;  -14.450;  753.760
993.012;   63.715;  -12.590;  749.540
993.565;   61.603;  -15.180;  711.360
994.117;   63.684;  -11.630;  950.780
994.669;   60.083;  -13.760;  701.320
995.221;   60.540;  -12.710;  791.920
995.774;   59.720;  -14.620;  787.580
996.326;   57.964;  -13.150;  740.220
996.878;   58.664;  -12.880;  838.420
997.430;   56.649;  -14.580;  699.860
997.982;   55.159;  -14.030;  750.140
998.534;   54.659;  -12.190;  739.060
999.086;   53.774;  -12.990;  738.220
999.638;   52.799;  -13.180;  661.380
1000.190;   51.496;  -14.970;  699.320
1000.741;   52.234;  -12.200;  742.700
1001.293;   51.092;  -13.400;  686.020
1001.845;   49.892;  -14.490;  676.640
1002.396;   50.190;  -15.280;  743.400
1002.948;   49.641;  -12.380;  737.400
1003.500;   48.794;  -13.260;  723.780
1004.051;   51.054;  -13.730;  907.580
1004.603;   49.732;  -12.300;  791.820
1005.154;   45.353;  -15.330;  608.980
1005.705;   44.380;  -12.800;  723.960
1006.257;   44.125;  -13.900;  707.220
1006.808;   42.830;  -14.430;  685.460
1007.359;   42.385;  -12.010;  763.240
1007.910;   41.024;  -12.690;  646.640
1008.461;   41.147;  -13.610;  732.940
1009.013;   39.458;  -14.990;  588.340
1009.564;   40.831;  -11.860;  793.520
1010.115;   37.795;  -12.640;  597.040
1010.665;   38.341;  -14.570;  602.160
1011.216;   38.531;  -15.190;  667.920
1011.767;   37.872;  -13.470;  697.920
1012.318;   38.565;  -13.760;  736.980
1012.869;   37.866;  -15.950;  679.000
1013.419;   36.577;  -15.880;  603.120
1013.970;   37.128;  -14.540;  666.640
1014.521;   35.882;  -13.220;  620.620
1015.071;   36.951;  -15.020;  670.380
1015.622;   35.934;  -17.510;  635.460
1016.172;   35.924;  -14.130;  596.820
1016.723;   34.861;  -14.220;  614.380
1017.273;   35.101;  -15.370;  604.160
1017.823;   34.366;  -15.290;  650.340
1018.374;   34.695;  -13.420;  611.760
1018.924;   34.699;  -11.740;  716.880
1019.474;   35.159;  -12.250;  718.880
1020.024;   33.337;  -15.850;  657.580
1020.574;   34.279;  -13.280;  726.160
1021.124;   34.599;  -13.560;  673.580
1021.674;   32.137;  -13.790;  559.120
1022.224;   34.130;  -14.610;  708.940
1022.774;   33.393;  -13.100;  668.820
1023.324;   33.828;  -11.470;  753.520
1023.874;   34.979;  -11.990;  875.760
1024.423;   32.166;  -14.550;  613.700
1024.973;   31.507;  -14.440;  610.760
1025.523;   31.003;  -13.250;  620.960
1026.072;   30.355;  -15.200;  606.420
1026.622;   30.212;  -14.590;  675.740
1027.172;   32.186;  -11.080;  715.660
1027.721;   29.662;  -14.010;  601.220
1028.270;   31.070;  -13.690;  663.400
1028.820;   30.792;  -15.380;  638.080
1029.369;   29.751;  -14.980;  612.700
1029.918;   29.580;  -13.100;  649.840
1030.468;   28.830;  -13.680;  564.780
1031.017;   30.298;  -13.770;  634.800
1031.566;   28.499;  -14.100;  608.900
1032.115;   29.154;  -11.770;  694.500
1032.664;   28.790;  -14.940;  596.480
1033.213;   29.434;  -13.370;  735.420
1033.762;   28.750;  -13.660;  635.620
1034.311;   28.051;  -13.650;  677.220
1034.860;   28.284;  -13.820;  691.000
1035.408;   28.583;  -12.860;  722.720
1035.957;   28.659;  -13.060;  719.540
1036.506;   26.071;  -14.510;  530.800
1037.055;   29.531;  -13.470;  844.320
1037.603;   26.960;  -14.800;  664.000
1038.152;   25.173;  -14.190;  534.760
1038.700;   26.823;  -11.810;  585.740
1039.249;   26.349;  -12.850;  681.220
1039.797;   26.595;  -14.610;  633.360
1040.345;   26.042;  -15.220;  705.420
1040.894;   25.740;  -13.480;  625.300
1041.442;   25.373;  -13.310;  632.200
1041.990;   24.588;  -14.510;  559.160
1042.538;   23.928;  -15.700;  536.180
1043.087;   24.981;  -13.910;  570.860
1043.635;   26.337;  -13.620;  670.500
1044.183;   24.976;  -14.230;  586.400
1044.731;   24.746;  -13.730;  576.000
1045.279;   24.231;  -13.970;  674.920
1045.827;   26.470;  -10.750;  892.400
1046.374;   23.135;  -15.230;  515.420
1046.922;   22.856;  -15.390;  590.580
1047.470;   24.007;  -12.320;  691.300
1048.018;   24.020;  -13.230;  647.960
1048.565;   24.829;  -13.390;  708.600
1049.113;   22.132;  -15.030;  557.000
1049.660;   22.669;  -12.540;  629.660
1050.208;   23.612;  -15.040;  675.640
1050.755;   22.772;  -14.680;  606.580
1051.303;   23.069;  -13.610;  686.820
1051.850;   22.560;  -14.340;  635.120
1052.397;   20.319;  -16.330;  473.960
1052.945;   20.763;  -15.710;  617.760
1053.492;   22.632;  -12.320;  741.840
1054.039;   22.776;  -13.730;  720.180
1054.586;   21.044;  -16.140;  557.240
1055.133;   22.298;  -14.020;  693.140
1055.680;   22.031;  -13.430;  646.620
1056.227;   20.306;  -14.570;  542.780
1056.774;   23.067;  -14.400;  794.980
1057.321;   19.988;  -14.230;  523.260
1057.868;   20.992;  -14.220;  651.320
1058.415;   20.401;  -14.060;  651.980
1058.961;   20.835;  -14.640;  678.940
1059.508;   20.617;  -13.970;  643.820
1060.055;   19.221;  -15.100;  581.780
1060.601;   20.495;  -12.180;  624.300
1061.148;   19.913;  -15.010;  616.820
1061.694;   19.921;  -14.750;  592.580
1062.241;   19.673;  -14.130;  596.320
1062.787;   19.932;  -14.770;  663.140
1063.334;   21.120;  -13.130;  808.560
1063.880;   19.562;  -14.420;  668.360
1064.426;   19.735;  -13.130;  706.820
1064.972;   18.428;  -13.960;  601.340
1065.518;   17.596;  -13.680;  566.640
1066.065;   18.725;  -15.720;  624.460
1066.611;   17.169;  -13.970;  598.800
1067.157;   17.724;  -13.920;  641.860
1067.703;   17.731;  -14.760;  668.480
1068.249;   17.402;  -14.490;  605.220
1068.794;   18.669;  -14.740;  626.880
1069.340;   16.983;  -13.220;  578.960
1069.886;   17.632;  -14.930;  590.700
1070.432;   16.554;  -14.700;  541.720
1070.977;   16.339;  -14.470;  601.080
1071.523;   16.955;  -14.330;  573.060
1072.068;   16.660;  -14.960;  582.000
1072.614;   16.442;  -16.220;  527.760
1073.160;   17.468;  -11.280;  687.040
1073.705;   15.774;  -15.990;  572.520
1074.250;   16.500;  -16.550;  559.900
1074.796;   16.749;  -14.600;  655.160
1075.341;   17.463;  -13.440;  664.100
1075.886;   16.501;  -14.450;  594.240
1076.431;   16.539;  -13.160;  649.880
1076.976;   15.878;  -14.710;  639.220
1077.521;   15.366;  -14.000;  583.080
1078.067;   15.368;  -14.470;  579.400
1078.612;   15.999;  -14.530;  661.620
1079.156;   15.234;  -15.660;  601.540
1079.701;   15.194;  -16.120;  693.260
1080.246;   15.935;  -12.960;  696.300
1080.791;   15.457;  -13.700;  625.020
1081.336;   14.934;  -15.540;  659.320
1081.880;   15.050;  -14.640;  649.680
1082.425;   14.451;  -14.220;  573.480
1082.970;   16.274;  -11.890;  717.040
1083.514;   14.479;  -13.820;  597.000
1084.059;   13.768;  -14.280;  586.720
1084.603;   13.473;  -12.890;  565.840
1085.147;   14.121;  -13.590;  645.220
1085.692;   14.684;  -14.050;  716.800
1086.236;   12.432;  -14.990;  503.140
1086.780;   15.155;  -12.640;  751.440
1087.325;   14.347;  -15.550;  654.620
1087.869;   13.981;  -14.980;  610.700
1088.413;   14.296;  -13.440;  705.040
1088.957;   12.543;  -12.170;  543.400
1089.501;   14.317;  -12.730;  766.640
1090.045;   13.407;  -14.650;  726.480
1090.589;   11.239;  -14.500;  569.920
1091.133;   12.834;  -12.320;  673.340
1091.676;   13.158;  -16.130;  591.940
1092.220;   12.306;  -13.930;  600.920
1092.764;   13.683;  -12.820;  706.960
1093.307;   12.696;  -11.700;  673.780
1093.851;   11.785;  -15.600;  556.540
1094.395;   12.168;  -13.920;  683.140
1094.938;   11.776;  -16.090;  632.520
1095.482;   11.779;  -13.820;  559.800
1096.025;   13.171;  -12.720;  710.880
1096.568;   13.247;  -12.100;  779.280
1097.112;    9.950;  -15.450;  508.180
1097.655;   11.898;  -14.310;  603.000
1098.198;   10.443;  -14.740;  600.180
1098.741;   10.542;  -15.550;  612.860
1099.285;   11.443;  -12.600;  657.300
1099.828;    9.285;  -15.050;  439.400
1100.371;   10.977;  -14.800;  608.160
1100.914;   11.338;  -16.480;  682.660
1101.457;   10.610;  -12.990;  679.900
1101.999;    9.245;  -14.110;  584.680
1102.542;   11.140;  -11.450;  641.440
1103.085;   10.399;  -13.350;  658.500
1103.628;   10.877;  -13.200;  762.060
1104.170;   10.237;  -12.310;  588.280
1104.713;    9.559;  -14.320;  646.700
1105.256;    9.232;  -16.110;  557.440
1105.798;    7.873;  -15.910;  499.980
1106.341;   10.559;  -12.200;  728.900
1106.883;    8.622;  -14.910;  521.340
1107.425;    9.740;  -14.960;  668.180
1107.968;    9.281;  -13.440;  612.380
1108.510;    9.907;  -14.010;  684.960
1109.052;    8.229;  -15.430;  612.620
1109.594;    8.531;  -15.290;  554.440
1110.136;    8.934;  -13.360;  643.220
1110.679;    8.408;  -13.820;  633.080
1111.221;    8.133;  -13.690;  604.460
1111.763;    7.930;  -14.890;  559.220
1112.304;    8.353;  -14.550;  547.140
1112.846;    8.529;  -12.760;  666.240
1113.388;   11.347;  -10.780;  942.180
1113.930;    8.502;  -12.690;  694.200
1114.472;    7.460;  -15.730;  606.540
1115.013;    6.719;  -14.620;  551.280
1115.555;    6.922;  -14.950;  587.100
1116.097;    6.715;  -16.460;  579.480
1116.638;    7.836;  -13.730;  684.600
1117.180;    8.619;  -13.810;  667.740
1117.721;    6.930;  -13.280;  568.580
1118.262;    7.980;  -15.080;  677.960
1118.804;    7.074;  -14.040;  637.340
1119.345;    6.329;  -15.430;  578.400
1119.886;    7.678;  -15.240;  704.040
1120.427;    6.371;  -15.820;  589.020
1120.969;    6.025;  -14.550;  597.920
1121.510;    5.748;  -14.030;  563.060
1122.051;    7.321;  -11.990;  723.580
1122.592;    5.837;  -16.490;  655.420
1123.133;    5.194;  -15.580;  547.940
1123.673;    6.680;  -12.850;  706.480
1124.214;    6.243;  -13.630;  612.460
1124.755;    6.824;  -14.830;  639.460
1125.296;    6.229;  -13.110;  627.320
1125.836;    6.839;  -11.320;  691.500
1126.377;    5.447;  -14.330;  599.660
1126.918;    5.434;  -12.800;  614.980
1127.458;    4.942;  -13.580;  622.220
1127.999;    6.387;  -10.330;  656.980
1128.539;    6.193;  -13.390;  694.240
1129.079;    4.941;  -16.420;  632.720
1129.620;    4.545;  -15.700;  558.100
1130.160;    3.634;  -14.790;  539.480
1130.700;    5.729;  -12.910;  640.840
1131.240;    5.485;  -15.610;  643.700
1131.781;    4.222;  -12.920;  619.680
1132.321;    4.605;  -15.300;  599.120
1132.861;    3.440;  -14.760;  564.200
1133.401;    4.002;  -15.470;  593.940
1133.941;    4.804;  -13.710;  626.280
1134.481;    4.272;  -11.820;  597.580
1135.020;    3.236;  -14.810;  609.160
1135.560;    4.499;  -13.660;  674.940
1136.100;    2.960;  -13.940;  501.160
1136.640;    3.236;  -15.410;  510.480
1137.179;    3.695;  -16.920;  537.960
1137.719;    3.744;  -16.430;  605.400
1138.258;    3.979;  -16.300;  587.360
1138.798;    4.843;  -13.710;  663.780
1139.337;    2.381;  -13.840;  482.840
1139.877;    3.936;  -16.140;  642.360
1140.416;    6.265;  -11.410;  878.060
1140.955;    2.271;  -12.820;  535.380
1141.494;    3.488;  -12.310;  669.280
1142.034;    1.743;  -16.280;  583.520
1142.573;    3.980;  -13.090;  646.280
1143.112;    2.486;  -13.770;  553.480
1143.651;    3.064;  -15.830;  536.480
1144.190;    4.186;  -15.010;  691.640
1144.729;    2.965;  -13.650;  607.420
1145.267;    2.872;  -13.670;  584.900
1145.806;    3.165;  -13.630;  637.040
1146.345;    2.142;  -14.160;  635.020
1146.884;    2.168;  -11.180;  622.500
1147.422;    1.581;  -15.890;  533.060
1147.961;    3.620;  -12.760;  708.460
1148.500;    2.890;  -15.220;  669.720
1149.038;    3.208;  -13.720;  632.500
1149.577;    2.498;  -13.250;  698.640
1150.115;    0.669;  -16.790;  452.280
1150.653;    2.106;  -15.810;  607.340
1151.192;    2.789;  -14.730;  552.920
1151.730;    1.309;  -13.660;  652.560
1152.268;    1.712;  -15.120;  589.520
1152.806;    1.740;  -15.580;  571.180
1153.344;   -0.148;  -16.210;  577.640
1153.882;    1.600;  -12.810;  600.060
1154.421;    0.171;  -14.150;  470.620
1154.958;    1.288;  -15.360;  595.240
1155.496;    2.919;  -14.710;  645.280
1156.034;    1.494;  -13.640;  721.880
1156.572;    2.713;  -13.740;  667.060
1157.110;   -0.088;  -16.960;  473.940
1157.647;    1.285;  -11.940;  676.960
1158.185;    0.613;  -14.090;  564.320
1158.723;   -0.502;  -13.610;  509.200
1159.260;    1.180;  -14.760;  701.700
1159.798;    1.616;  -13.700;  658.160
1160.335;    0.562;  -13.820;  631.820

