gmr_left
Integration time [ms]:   3.882
Averaging Nr. [scans]: 1000
Smoothing Nr. [pixels]: 0
Data measured with spectrometer [name]: 7414430SP
Wave   ;Sample   ;Dark     ;Reference
[nm]   ;[counts] ;[counts] ;[counts] 

288.544;  131.409;   10.292;  793.890
289.143;  133.544;    4.564;  681.602
289.742;  134.530;    6.144;  828.814
290.341;  121.599;    4.396;  789.841
290.940;  112.581;    0.938;  730.702
291.538;  113.164;   -0.684;  881.108
292.137;  111.730;   -2.845;  792.581
292.736;  116.612;   -0.144;  975.101
293.335;  113.377;   -6.352;  735.086
293.934;  112.009;   -7.642;  781.677
294.532;  111.273;   -4.992; 1031.958
295.131;   98.759;   -5.478;  834.394
295.730;   98.905;   -6.549;  809.588
296.328;   96.755;   -9.558;  783.442
296.927;   96.136;   -8.118;  779.652
297.525;   98.241;   -6.908;  781.236
298.124;   88.965;   -9.195;  654.009
298.722;   92.875;   -8.198;  761.933
299.321;   90.681;   -8.817;  708.597
299.919;   88.662;   -7.716;  751.918
300.518;   84.923;  -10.745;  689.338
301.116;   86.170;   -9.647;  691.381
301.715;   85.989;  -10.828;  730.222
302.313;   86.595;   -6.087;  704.943
302.911;   81.424;   -6.824;  733.830
303.509;   86.936;   -8.807;  925.627
304.108;   83.081;   -8.198;  760.383
304.706;   83.905;   -6.218;  801.664
305.304;   78.944;   -7.185;  796.707
305.902;   83.671;   -8.568;  784.484
306.500;   78.799;   -7.737;  728.200
307.098;   78.283;   -6.026;  746.560
307.696;   75.879;   -7.176;  780.432
308.294;   76.695;   -8.656;  731.359
308.892;   77.382;   -6.838;  759.769
309.490;   74.445;   -2.596;  712.161
310.088;   73.446;   -4.485;  788.444
310.686;   77.501;   -3.907;  821.749
311.284;   73.297;   -2.806;  766.040
311.882;   71.183;   -2.845;  731.225
312.480;   68.320;   -3.274;  697.167
313.078;   69.843;   -3.645;  808.331
313.675;   69.968;   -4.997;  691.600
314.273;   66.068;   -0.894;  797.837
314.871;   64.694;   -2.854;  589.829
315.468;   62.722;   -3.644;  652.090
316.066;   66.268;   -3.947;  694.427
316.664;   59.189;   -1.824;  656.351
317.261;   64.070;    1.565;  910.128
317.859;   59.012;   -3.955;  768.735
318.456;   59.334;   -2.886;  830.096
319.054;   56.792;   -0.995;  787.828
319.651;   56.088;   -1.765;  759.928
320.249;   54.659;   -3.685;  810.188
320.846;   51.776;   -3.736;  714.286
321.443;   51.016;   -2.065;  832.135
322.041;   48.601;   -5.635;  812.315
322.638;   45.404;   -5.985;  701.456
323.235;   47.761;   -6.677;  665.683
323.833;   45.735;   -3.497;  740.354
324.430;   41.011;   -6.756;  615.900
325.027;   42.577;   -7.647;  876.855
325.624;   42.746;   -7.598;  644.532
326.221;   41.196;   -5.848;  689.717
326.818;   40.938;   -5.777;  818.332
327.415;   42.668;   -8.769;  748.828
328.012;   41.868;   -6.299;  690.585
328.609;   41.603;   -6.639;  731.389
329.206;   39.330;   -6.358;  778.621
329.803;   37.756;   -8.698;  737.841
330.400;   39.549;   -8.379;  704.260
330.997;   40.813;   -6.178;  817.147
331.594;   38.491;   -5.646;  788.185
332.191;   42.897;   -6.928;  728.722
332.787;   43.397;   -6.057;  844.463
333.384;   42.404;   -6.445;  763.093
333.981;   40.189;   -8.002;  815.687
334.578;   41.588;   -8.443;  708.378
335.174;   43.645;   -6.053;  731.469
335.771;   44.709;   -5.791;  836.456
336.367;   41.610;   -6.570;  710.631
336.964;   43.111;   -6.741;  793.266
337.561;   42.051;   -5.710;  731.112
338.157;   39.129;   -3.928;  911.916
338.754;   35.382;   -5.577;  796.589
339.350;   34.481;   -9.667;  722.493
339.946;   37.644;   -5.269;  773.135
340.543;   30.109;   -4.485;  846.136
341.139;   24.990;   -7.584;  720.836
341.735;   22.479;   -8.553;  772.593
342.332;   21.586;   -4.984;  691.472
342.928;   22.675;   -3.475;  795.394
343.524;   17.841;   -6.653;  761.684
344.120;   14.453;   -7.173;  738.562
344.716;   16.846;   -4.385;  723.717
345.313;   15.853;   -3.565;  795.342
345.909;   11.292;   -7.495;  627.336
346.505;   12.678;   -8.276;  740.247
347.101;   13.474;   -5.697;  827.864
347.697;   14.049;   -4.767;  785.398
348.293;    8.650;   -7.226;  627.244
348.889;    9.356;   -7.547;  745.914
349.485;    9.126;   -9.147;  688.205
350.081;   10.799;   -6.568;  772.592
350.676;    6.077;   -6.516;  691.606
351.272;    9.868;   -7.378;  809.530
351.868;    9.088;   -6.759;  780.497
352.464;    7.478;   -4.798;  723.932
353.059;    4.516;   -7.977;  646.017
353.655;    7.176;   -8.769;  777.063
354.251;    8.389;   -5.920;  759.845
354.846;    3.869;   -7.647;  740.646
355.442;    1.310;   -6.956;  753.071
356.038;    2.012;   -9.928;  751.708
356.633;    2.809;   -7.698;  728.594
357.229;    1.342;   -6.307;  724.757
357.824;   -0.483;   -7.647;  703.600
358.420;   -1.728;  -10.047;  679.726
359.015;   -1.372;   -7.458;  695.357
359.610;    0.294;   -5.748;  763.920
360.206;   -5.849;   -9.346;  603.240
360.801;   -3.312;  -11.268;  646.503
361.396;   -0.594;   -8.789;  725.975
361.992;   -4.468;   -6.347;  668.220
362.587;   -7.604;   -6.476;  670.160
363.182;   -6.124;   -9.457;  689.631
363.777;   -4.255;   -7.147;  738.242
364.372;   -3.873;   -5.507;  737.314
364.967;   -8.425;   -6.386;  680.744
365.563;   -3.658;   -7.858;  815.567
366.158;   -6.387;   -8.517;  685.161
366.753;   -6.141;   -8.728;  649.263
367.348;   -7.294;   -7.677;  746.056
367.942;   -7.790;  -10.387;  697.298
368.537;   -8.941;   -7.187;  754.245
369.132;   -8.118;   -8.587;  703.428
369.727;  -11.814;   -8.606;  638.079
370.322;  -11.189;  -10.426;  580.186
370.917;  -11.412;   -5.776;  710.646
371.511;   -7.262;   -6.007;  861.834
372.106;  -10.624;   -6.686;  776.964
372.701;  -14.967;   -9.335;  585.988
373.296;   -8.623;   -6.777;  863.135
373.890;  -13.667;   -7.546;  647.840
374.485;  -14.664;   -8.755;  691.199
375.079;  -11.257;   -9.797;  738.685
375.674;  -10.380;   -6.327;  812.970
376.268;  -14.200;   -9.046;  691.759
376.863;  -20.490;   -7.993;  580.327
377.457;  -13.518;   -9.206;  662.490
378.052;  -15.413;   -5.345;  764.884
378.646;  -15.718;   -5.605;  741.167
379.240;  -15.995;   -6.825;  721.176
379.835;  -15.301;  -10.476;  636.978
380.429;  -18.671;   -8.676;  562.557
381.023;  -16.614;   -4.945;  779.205
381.617;  -19.638;   -8.094;  680.106
382.212;  -16.870;  -10.646;  685.303
382.806;  -15.994;   -8.136;  760.690
383.400;  -18.434;   -7.855;  672.281
383.994;  -20.830;   -8.125;  664.870
384.588;  -16.043;   -7.637;  697.701
385.182;  -15.439;   -7.458;  726.624
385.776;  -16.270;   -6.277;  706.875
386.370;  -19.090;   -7.485;  681.968
386.964;  -17.533;   -9.416;  684.155
387.558;  -16.724;   -8.518;  598.360
388.152;  -19.615;   -7.096;  681.959
388.745;  -17.143;   -7.656;  814.707
389.339;  -15.953;   -8.927;  747.642
389.933;  -15.647;   -9.538;  695.370
390.527;  -15.586;   -5.857;  859.029
391.120;  -22.319;   -9.455;  595.318
391.714;  -19.249;   -9.746;  711.633
392.308;  -16.506;   -7.857;  780.253
392.901;  -20.184;   -9.106;  642.460
393.495;  -21.531;  -10.365;  595.414
394.089;  -19.734;   -9.696;  760.452
394.682;  -20.108;   -7.016;  697.188
395.275;  -19.844;   -8.466;  719.927
395.869;  -21.862;   -8.985;  667.314
396.462;  -20.935;  -11.496;  616.609
397.056;  -17.070;   -7.838;  776.621
397.649;  -19.879;   -6.895;  731.575
398.242;  -17.949;   -5.017;  712.645
398.836;  -17.083;   -8.787;  766.408
399.429;  -18.468;   -8.967;  631.041
400.022;  -21.994;   -8.815;  665.902
400.615;  -18.723;   -6.276;  805.609
401.208;  -17.076;   -8.407;  691.451
401.802;  -20.034;   -7.296;  699.329
402.395;  -21.094;   -7.585;  683.502
402.988;  -21.260;   -8.015;  696.627
403.581;  -18.401;   -9.577;  646.878
404.174;  -16.681;   -7.588;  686.568
404.767;  -19.069;   -7.906;  638.583
405.360;  -21.102;   -7.875;  621.445
405.953;  -15.733;   -8.127;  759.034
406.545;  -14.949;   -7.198;  725.342
407.138;  -19.508;   -8.916;  618.350
407.731;  -18.023;   -9.767;  613.303
408.324;  -13.827;  -10.659;  660.554
408.917;  -15.579;   -8.068;  681.864
409.509;  -16.025;   -9.837;  740.396
410.102;  -19.013;   -8.146;  643.948
410.695;  -12.223;   -7.969;  665.758
411.287;  -14.035;   -8.579;  599.821
411.880;  -14.466;   -6.968;  585.421
412.472;  -17.342;   -9.487;  613.092
413.065;  -15.475;  -10.338;  629.408
413.657;  -12.756;   -9.169;  576.678
414.250;  -11.682;  -10.119;  646.681
414.842;  -13.302;   -9.938;  676.353
415.434;  -11.093;  -10.409;  570.463
416.027;   -8.128;   -9.591;  652.196
416.619;   -8.947;   -7.379;  713.400
417.211;   -9.651;   -9.159;  599.352
417.804;   -6.506;   -9.191;  628.499
418.396;  -11.018;   -8.159;  607.643
418.988;   -7.726;   -6.960;  659.238
419.580;  -11.756;  -11.389;  568.276
420.172;   -8.855;  -13.460;  536.196
420.764;   -4.952;  -10.701;  672.482
421.356;   -5.458;   -8.961;  636.898
421.948;   -6.453;   -9.770;  677.661
422.540;   -1.187;   -8.832;  680.027
423.132;   -2.366;   -8.153;  600.641
423.724;   -5.829;   -8.481;  561.267
424.316;   -2.989;   -9.261;  621.345
424.908;    0.507;   -9.643;  591.517
425.500;    0.934;   -8.663;  647.978
426.092;    2.454;   -8.503;  648.268
426.683;    0.867;  -10.522;  684.836
427.275;    3.645;  -11.734;  641.471
427.867;    4.206;  -10.264;  668.948
428.458;    6.098;   -7.644;  732.344
429.050;    3.715;   -7.853;  680.749
429.642;    5.983;   -8.904;  743.124
430.233;    6.344;  -10.795;  569.356
430.825;    8.154;   -7.665;  724.809
431.416;    6.030;   -8.843;  698.241
432.008;    8.705;   -9.885;  651.723
432.599;    9.836;   -9.966;  656.073
433.190;    6.739;   -9.164;  637.670
433.782;    7.157;   -8.584;  590.395
434.373;   14.439;   -8.296;  884.765
434.964;   12.411;   -9.896;  602.920
435.556;   10.279;   -8.255;  634.537
436.147;   13.296;   -8.075;  758.490
436.738;   12.378;   -9.716;  701.099
437.329;   18.314;   -7.318;  721.723
437.920;   11.406;   -6.694;  666.688
438.511;   11.208;   -9.644;  564.526
439.103;   18.264;   -9.427;  623.998
439.694;   18.956;  -10.748;  681.583
440.285;   21.624;   -7.997;  764.432
440.876;   20.108;  -10.046;  845.738
441.466;   18.229;  -13.467;  575.162
442.057;   23.801;   -9.329;  665.814
442.648;   21.989;   -7.707;  746.255
443.239;   20.569;   -9.017;  620.477
443.830;   25.216;  -10.279;  704.958
444.421;   27.072;  -12.630;  655.474
445.011;   24.815;   -8.697;  693.619
445.602;   23.746;   -7.787;  743.126
446.193;   25.542;  -13.329;  488.117
446.783;   30.418;   -9.171;  640.397
447.374;   26.133;   -7.457;  692.759
447.964;   26.759;   -9.277;  713.770
448.555;   34.968;   -9.041;  822.742
449.145;   30.991;   -8.969;  662.853
449.736;   32.346;   -6.809;  803.179
450.326;   33.038;   -7.229;  713.626
450.917;   37.801;  -11.391;  675.324
451.507;   36.550;   -9.501;  600.661
452.097;   37.756;   -8.460;  746.267
452.688;   38.564;  -10.080;  742.160
453.278;   37.863;  -12.861;  566.840
453.868;   42.529;   -8.372;  793.550
454.458;   40.534;   -8.131;  651.141
455.048;   41.214;   -8.520;  711.783
455.639;   42.596;  -13.632;  567.096
456.229;   45.791;  -10.143;  710.694
456.819;   48.338;   -9.163;  751.158
457.409;   48.570;   -8.652;  773.993
457.999;   51.885;   -9.933;  737.505
458.589;   51.394;  -10.363;  686.606
459.179;   51.044;  -10.633;  717.658
459.769;   49.640;  -12.442;  627.099
460.358;   53.850;   -9.844;  797.262
460.948;   53.807;   -9.924;  689.503
461.538;   55.820;  -10.484;  660.677
462.128;   53.502;  -10.703;  664.934
462.717;   60.772;  -11.486;  710.326
463.307;   62.916;  -10.767;  705.846
463.897;   59.380;   -8.814;  656.942
464.486;   59.407;   -8.182;  837.128
465.076;   63.536;   -9.985;  733.776
465.666;   66.686;  -10.447;  652.900
466.255;   64.705;   -7.754;  785.651
466.845;   63.651;  -10.884;  666.749
467.434;   66.922;  -12.525;  725.873
468.023;   67.985;  -11.456;  658.357
468.613;   65.114;   -9.173;  713.946
469.202;   69.437;   -9.306;  646.507
469.791;   74.102;   -8.917;  737.811
470.381;   75.432;   -9.657;  742.813
470.970;   75.453;   -9.947;  711.099
471.559;   75.251;   -9.256;  733.291
472.148;   78.009;  -13.397;  675.737
472.738;   80.660;   -9.928;  765.466
473.327;   80.770;  -10.897;  637.529
473.916;   80.540;   -8.526;  737.446
474.505;   84.517;  -11.078;  751.703
475.094;   87.854;   -9.559;  806.570
475.683;   86.987;   -8.838;  797.699
476.272;   88.268;  -10.198;  730.632
476.861;   90.630;  -11.489;  706.754
477.449;   97.126;  -10.721;  728.487
478.038;   91.653;   -9.818;  692.513
478.627;   92.730;   -9.887;  714.852
479.216;   99.522;  -10.030;  769.441
479.805;  102.339;   -9.401;  783.375
480.393;  102.104;   -5.739; 1008.945
480.982;  102.162;   -7.838;  874.501
481.571;  107.527;   -9.111;  858.333
482.159;  107.630;  -10.601;  705.386
482.748;  107.902;   -8.500;  821.385
483.336;  112.766;   -9.241;  858.209
483.925;  113.200;  -10.440;  774.373
484.513;  119.492;  -11.063;  758.962
485.102;  116.442;   -9.540;  810.965
485.690;  125.783;   -6.742; 1011.050
486.278;  128.128;   -8.442;  979.329
486.867;  126.770;  -10.472;  809.662
487.455;  129.240;   -8.811;  898.229
488.043;  130.575;  -10.721;  748.361
488.631;  139.800;  -10.393; 1005.079
489.220;  142.881;  -10.843;  908.626
489.808;  143.847;  -10.572;  741.415
490.396;  152.519;  -10.482;  914.645
490.984;  157.433;  -11.542;  830.161
491.572;  167.138;   -8.463;  940.315
492.160;  173.962;   -8.491;  919.081
492.748;  183.845;   -9.681;  884.341
493.336;  203.561;  -10.493; 1019.693
493.924;  227.784;   -9.354;  958.077
494.512;  257.293;   -9.132; 1066.638
495.100;  298.262;   -9.001; 1103.280
495.687;  351.884;  -11.924; 1206.373
496.275;  419.862;  -11.193; 1150.796
496.863;  492.970;   -9.241; 1281.171
497.451;  586.818;  -11.341; 1386.805
498.038;  714.955;  -11.364; 1556.729
498.626;  831.796;   -8.104; 1741.407
499.214; 1001.212;   -8.842; 2016.609
499.801; 1238.975;  -10.112; 2220.633
500.389; 1452.846;  -11.953; 2312.494
500.976; 1641.762;  -10.023; 2744.849
501.564; 1905.563;   -8.662; 3148.565
502.151; 2247.346;  -10.531; 3515.999
502.738; 2615.884;  -13.853; 3971.274
503.326; 3143.035;  -10.794; 4403.796
503.913; 3555.057;   -8.663; 5161.749
504.500; 4084.126;  -10.172; 5986.420
505.088; 4936.464;  -13.472; 6381.201
505.675; 5517.235;  -10.924; 6925.547
506.262; 5599.879;   -8.551; 7619.060
506.849; 6111.665;  -10.523; 8733.969
507.436; 6912.083;  -10.834; 9790.121
508.023; 7362.176;   -9.093; 9985.472
508.610; 7677.637;  -10.073;10434.618
509.197; 8596.747;   -9.500;11198.435
509.784;10049.011;  -13.242;12391.194
510.371;11021.907;  -10.964;13603.713
510.958;11402.260;   -9.772;14426.586
511.545;11788.302;   -7.842;15243.775
512.132;11858.842;  -12.184;15945.876
512.719;13003.664;   -9.733;16340.369
513.305;15658.676;   -9.172;18011.766
513.892;16934.102;   -9.581;19754.971
514.479;17684.336;  -10.253;20967.805
515.066;18492.072;   -8.183;22299.793
515.652;19501.668;   -9.253;22908.660
516.239;20843.063;   -9.412;23798.875
516.825;21404.102;  -11.153;25567.275
517.412;20399.922;  -10.263;28154.959
517.998;19117.211;   -8.802;28344.111
518.585;19646.629;  -10.401;27134.219
519.171;21351.463;  -12.744;27268.576
519.758;24768.061;  -11.793;28964.129
520.344;28908.830;   -8.912;30664.494
520.930;32701.080;  -10.901;32550.605
521.516;32701.742;  -12.034;35422.895
522.103;32646.729;  -10.473;38280.004
522.689;34432.953;   -8.311;37835.117
523.275;37351.012;  -10.691;37288.613
523.861;39616.465;  -11.193;37281.395
524.447;37446.285;  -11.484;37846.949
525.033;37378.117;   -7.702;38321.949
525.619;36984.824;  -11.241;38579.285
526.205;36688.980;  -12.152;40622.875
526.791;38086.539;  -11.423;42258.836
527.377;38608.879;   -7.981;42966.902
527.963;39055.402;   -9.450;42018.949
528.549;39482.438;  -11.351;42476.828
529.135;39482.629;  -10.202;41854.852
529.721;41067.859;   -8.672;41237.711
530.306;41147.285;   -9.111;41259.445
530.892;42272.547;  -11.252;41506.047
531.478;45431.168;  -10.432;43559.613
532.063;47538.656;  -10.721;47695.563
532.649;48049.367;   -7.450;50808.324
533.235;49731.945;  -11.811;51787.500
533.820;48949.992;   -9.383;52145.035
534.406;46664.672;   -9.400;51133.488
534.991;44745.973;   -8.861;49996.805
535.576;45523.566;  -10.612;48882.852
536.162;43661.289;   -7.322;46942.285
536.747;43030.730;   -9.360;45711.746
537.333;44659.668;  -10.450;48510.180
537.918;47579.273;  -12.610;50439.891
538.503;47427.051;  -12.132;50863.711
539.088;44503.043;  -10.831;50906.922
539.673;44016.984;  -11.220;52621.965
540.259;47964.352;  -11.481;52368.094
540.844;48487.160;  -11.462;50879.109
541.429;49406.895;   -7.869;52077.777
542.014;47992.336;  -11.859;52716.695
542.599;46119.617;  -11.061;52363.281
543.184;47101.027;  -12.300;53187.137
543.769;48912.777;   -9.369;54697.605
544.354;49732.117;  -12.020;53913.914
544.938;44697.074;  -10.350;49680.164
545.523;40676.301;  -10.841;47386.277
546.108;43599.219;   -8.579;49151.949
546.693;45892.449;   -8.818;51384.637
547.278;46598.910;  -11.331;51853.254
547.862;45526.453;  -10.292;51173.750
548.447;40492.004;   -8.349;51691.395
549.031;35965.535;  -10.838;52456.703
549.616;36125.230;  -11.681;52714.516
550.201;42308.758;  -11.140;52414.598
550.785;45126.383;   -8.649;52355.059
551.370;47095.555;  -11.889;54589.453
551.954;49483.379;  -11.239;58267.348
552.538;51264.129;   -8.850;59062.176
553.123;53387.160;  -10.829;58115.285
553.707;54177.148;   -8.887;56556.285
554.291;51132.055;  -10.430;56201.668
554.876;49116.129;   -9.799;55335.762
555.460;46093.090;  -10.018;54155.703
556.044;44392.434;   -7.307;53721.484
556.628;48477.035;  -12.229;53731.016
557.212;49968.324;   -9.820;54312.531
557.796;47639.129;   -9.109;53797.773
558.380;43631.090;   -9.707;56145.984
558.964;44313.445;  -10.980;57277.930
559.548;48185.922;  -12.010;56459.641
560.132;49032.852;   -7.928;54434.543
560.716;51823.695;  -10.247;54800.617
561.300;52707.266;  -11.250;57606.945
561.884;50744.871;  -10.568;58972.445
562.467;50376.316;   -9.727;57327.570
563.051;47305.398;  -11.847;54962.434
563.635;45288.063;  -10.747;52594.473
564.219;43560.488;  -13.108;50610.410
564.802;40995.617;  -11.417;49551.180
565.386;39072.000;  -10.457;48370.953
565.969;41516.270;   -8.959;48178.871
566.553;41868.020;  -10.328;49957.305
567.136;41636.887;  -10.257;50369.594
567.720;41529.004;  -10.186;49492.004
568.303;40599.996;  -10.027;50616.352
568.887;40963.539;  -10.397;50727.148
569.470;42072.902;   -8.185;51698.379
570.053;40989.688;  -11.596;52122.078
570.637;39803.605;  -11.378;52536.438
571.220;39705.852;   -9.138;51186.098
571.803;39104.914;   -7.675;51032.762
572.386;37515.648;   -8.976;49609.887
572.969;38214.961;  -12.477;48285.926
573.552;38634.633;   -9.767;47624.285
574.135;37805.809;   -8.175;45498.641
574.718;33215.918;  -11.096;41970.434
575.301;31961.701;  -11.966;41447.137
575.884;30707.486;  -12.836;40923.836
576.467;35861.910;   -9.116;45267.723
577.050;38112.313;  -10.536;48175.543
577.633;38357.715;  -11.027;47729.328
578.216;36852.379;   -9.946;47579.793
578.799;35476.582;   -9.645;47820.996
579.381;35681.379;   -9.446;48115.551
579.964;36582.422;  -12.217;47333.766
580.547;37552.094;  -10.586;46668.969
581.129;36974.398;   -8.374;44466.141
581.712;35211.145;  -10.434;44164.922
582.294;34376.145;  -10.896;46477.855
582.877;35698.219;   -8.906;48244.254
583.459;36678.270;   -9.994;47437.895
584.042;36137.594;  -10.084;46943.219
584.624;35115.328;  -13.534;46792.227
585.206;33774.563;  -12.716;46557.250
585.789;33899.754;  -11.614;45793.773
586.371;34825.426;  -10.203;43836.391
586.953;34002.535;  -10.314;42972.492
587.536;31988.992;   -9.776;42487.211
588.118;31988.699;   -9.821;42086.414
588.700;32763.527;  -10.073;43389.930
589.282;34009.555;  -12.395;43646.039
589.864;32751.656;  -11.514;43438.109
590.446;32727.799;  -10.803;43151.926
591.028;34150.887;  -11.043;42781.867
591.610;34824.305;  -13.244;42839.098
592.192;31743.014;  -11.095;42820.402
592.774;29150.762;  -10.823;40724.277
593.356;28342.768;  -11.052;39874.789
593.937;30426.676;  -11.664;39980.648
594.519;33519.047;  -10.454;42069.633
595.101;34762.652;  -10.322;42976.031
595.683;33794.418;  -10.042;44084.441
596.264;32100.379;  -14.334;43478.797
596.846;31634.811;  -10.863;43803.672
597.427;32323.436;   -9.901;42986.934
598.009;33010.879;  -10.911;42832.219
598.591;34034.988;  -10.483;42580.086
599.172;32602.170;   -9.663;43061.805
599.753;30401.801;  -10.631;41691.469
600.335;29939.770;   -9.371;40692.520
600.916;31220.701;  -13.992;39982.422
601.498;32840.547;   -8.352;40318.617
602.079;31077.078;   -8.411;40670.609
602.660;32397.920;  -10.841;41450.898
603.241;34312.227;  -12.963;41137.738
603.823;33307.668;  -11.523;38868.797
604.404;31417.436;  -11.881;38182.785
604.985;31676.268;  -11.721;38078.047
605.566;33089.145;   -9.293;38056.633
606.147;32441.338;  -10.940;37020.418
606.728;31035.826;  -11.840;37883.359
607.309;30083.727;  -11.781;38748.273
607.890;30786.652;  -11.262;38850.230
608.471;30050.850;  -10.111;37457.918
609.051;29658.232;   -7.709;36066.457
609.632;30686.059;  -12.409;35991.074
610.213;30158.887;  -10.811;37402.641
610.794;29438.816;  -11.630;38383.363
611.374;30356.688;   -8.030;40562.387
611.955;31393.352;  -10.809;38533.727
612.536;32708.541;  -10.531;36951.789
613.116;32791.012;  -12.820;37197.891
613.697;32051.982;  -11.419;38411.125
614.277;31471.824;   -9.768;38673.938
614.858;31873.334;  -10.251;37075.863
615.438;28586.975;  -11.981;35092.906
616.019;26050.469;   -8.978;33666.301
616.599;28820.195;  -12.219;34189.023
617.179;32007.971;  -14.170;36952.047
617.760;33690.020;   -9.211;39582.574
618.340;34252.500;   -9.018;38943.977
618.920;32578.691;   -9.249;37594.156
619.500;31422.139;  -12.728;37866.938
620.080;33654.320;  -12.939;37869.043
620.660;33332.797;  -11.586;36868.617
621.241;32109.947;  -11.538;36352.309
621.821;32712.176;  -11.398;35459.520
622.401;33880.563;  -10.179;35207.414
622.980;34454.355;  -11.587;35980.422
623.560;33644.398;  -12.888;37351.328
624.140;31451.441;  -13.149;34388.582
624.720;26540.871;   -9.928;32368.764
625.300;25945.100;  -10.869;32638.629
625.880;30762.523;   -8.617;34599.035
626.459;35578.875;  -12.138;36831.738
627.039;37077.066;  -12.267;38299.098
627.619;36814.984;   -7.476;38289.574
628.198;37065.047;  -11.347;37220.695
628.778;36246.758;  -11.678;37632.563
629.357;34280.215;  -12.438;38003.012
629.937;32512.590;   -9.576;38402.039
630.516;31176.387;  -11.096;37868.801
631.096;30189.107;  -11.828;35760.410
631.675;30487.225;  -11.565;35225.219
632.254;30958.445;  -11.845;35130.289
632.834;31992.412;  -11.545;35794.570
633.413;32960.727;  -10.887;35788.922
633.992;34752.020;  -10.175;34532.863
634.571;33763.492;   -9.704;33590.113
635.151;31091.203;  -10.815;34943.863
635.730;30324.391;  -11.617;35352.523
636.309;29485.705;  -10.836;35366.605
636.888;30231.363;   -9.755;36165.637
637.467;30775.682;  -11.684;37515.902
638.046;32251.564;  -11.987;39288.695
638.625;33727.449;  -10.455;38279.699
639.204;33688.207;  -11.234;37741.598
639.782;31235.682;  -12.023;38364.551
640.361;28535.010;  -11.506;36740.621
640.940;27899.148;  -12.316;34950.082
641.519;30069.512;  -11.616;34137.398
642.097;33969.570;   -9.266;35654.258
642.676;34608.797;  -12.936;35637.957
643.255;33211.270;   -9.966;36567.074
643.833;33120.785;   -8.916;37809.434
644.412;34811.059;  -10.936;37337.293
644.990;37739.473;  -12.176;37018.531
645.569;38678.633;  -12.246;36518.469
646.147;37652.484;  -12.107;36186.430
646.726;36186.418;  -12.937;36267.688
647.304;38145.395;  -12.547;36647.625
647.882;38715.633;  -12.597;39286.742
648.461;37104.020;   -9.427;39157.703
649.039;35405.805;   -8.937;35412.883
649.617;33515.484;  -11.067;34744.918
650.195;33675.238;  -10.657;35403.098
650.773;33099.254;  -10.097;35053.797
651.352;30615.572;  -11.887;33756.816
651.930;25953.111;  -13.557;31868.773
652.508;22749.941;  -11.767;33121.551
653.086;23993.445;  -10.777;33564.793
653.663;27464.426;  -12.067;34054.668
654.241;30260.338;  -14.918;35693.309
654.819;32158.713;  -11.788;36422.906
655.397;31936.029;  -11.268;38213.484
655.975;32847.316;  -11.738;39507.625
656.553;32383.271;  -11.018;39498.223
657.130;31375.172;  -12.848;40395.480
657.708;30582.072;  -10.098;39242.020
658.286;31285.439;  -11.678;38920.020
658.863;33975.828;  -11.498;40202.898
659.441;36342.254;  -11.008;39677.938
660.018;36975.348;  -11.048;40413.355
660.596;36912.539;  -12.058;39931.414
661.173;36309.539;  -14.158;39604.531
661.750;35349.082;  -12.298;39700.070
662.328;34214.445;  -10.699;39292.809
662.905;32688.715;  -12.119;38235.648
663.482;28157.209;  -11.829;36212.305
664.060;27099.133;  -11.009;35944.945
664.637;29888.197;  -10.369;35170.785
665.214;30330.172;  -10.459;34197.523
665.791;28849.982;  -12.599;34549.520
666.368;28614.639;  -12.919;35118.578
666.945;30634.551;  -10.699;36019.418
667.522;31904.016;  -11.359;36048.438
668.099;32061.480;  -13.529;36243.914
668.676;31574.590;  -10.229;35958.875
669.253;31378.143;   -9.279;37384.730
669.830;30186.248;  -11.370;36779.629
670.407;30336.504;  -10.950;35231.289
670.984;31723.768;  -12.850;35544.270
671.560;31382.375;   -8.440;35466.867
672.137;29823.441;  -13.520;34280.863
672.714;29083.012;  -13.620;34632.863
673.290;29625.379;  -10.450;35135.422
673.867;29163.344;  -10.960;36114.480
674.443;27795.861;  -13.300;36152.859
675.020;28457.021;  -12.370;35327.238
675.596;29249.580;  -11.250;35795.176
676.173;29834.896;  -11.080;35430.355
676.749;29821.814;  -13.220;33549.516
677.326;32609.213;  -13.000;32210.012
677.902;34459.652;  -12.701;32068.871
678.478;34121.699;  -12.801;32583.891
679.054;33668.828;   -8.601;32088.928
679.631;34801.117;  -12.631;30978.848
680.207;34344.145;   -9.451;33160.887
680.783;32594.229;  -11.701;35570.363
681.359;32052.414;  -12.701;36125.184
681.935;32259.010;  -13.271;35240.922
682.511;31555.766;  -10.791;34429.961
683.087;31546.463;  -10.791;34463.680
683.663;31303.854;   -8.121;34648.898
684.239;32688.590;  -13.261;34546.457
684.815;32290.631;  -10.581;35586.375
685.390;29484.539;   -9.961;35821.895
685.966;28527.811;  -11.182;35085.871
686.542;27878.051;  -13.512;34198.230
687.118;27767.521;  -11.472;32847.707
687.693;28082.262;  -10.152;32794.027
688.269;29186.305;  -14.442;33072.367
688.844;30815.324;  -11.852;33141.664
689.420;29043.654;  -13.942;33965.742
689.995;27484.564;   -9.702;34655.523
690.571;27596.660;  -11.312;33576.742
691.146;26989.025;  -14.332;32657.219
691.722;27713.682;  -11.192;32526.979
692.297;30308.926;  -10.962;33014.617
692.872;29887.863;  -11.082;34012.254
693.448;28841.236;  -14.732;34237.434
694.023;28063.971;  -12.363;34142.672
694.598;27939.615;  -12.393;34132.031
695.173;27030.465;  -11.023;34205.250
695.748;26496.348;  -12.743;32882.488
696.323;27805.080;  -11.103;32864.906
696.898;29262.146;   -8.123;33170.004
697.473;29156.238;  -12.603;32432.984
698.048;28842.010;  -12.553;31649.303
698.623;30258.605;  -12.573;30778.141
699.198;33725.484;  -12.743;31140.119
699.773;31645.285;  -12.843;31764.299
700.348;30042.268;  -16.683;31780.816
700.922;30158.344;  -11.403;32046.375
701.497;31117.180;  -11.253;32603.574
702.072;32019.646;  -10.044;34799.871
702.646;31944.691;  -13.054;35793.172
703.221;30399.395;  -11.414;35201.590
703.795;30249.221;  -10.644;34764.527
704.370;31907.570;  -13.484;34307.367
704.944;32011.578;  -12.144;33509.887
705.519;30841.674;  -12.024;31388.584
706.093;29320.133;  -11.234;31340.104
706.668;27535.217;   -9.874;32630.281
707.242;26868.105;  -12.404;32728.779
707.816;27420.383;  -10.644;32947.238
708.390;26936.512;  -11.174;33277.855
708.965;26878.998;  -10.324;33834.336
709.539;26402.527;  -12.014;33709.273
710.113;26184.947;  -12.295;33044.313
710.687;27206.961;  -10.965;31953.992
711.261;28012.656;  -13.685;30505.949
711.835;27341.297;  -15.335;30262.369
712.409;26516.742;  -13.785;31254.447
712.983;27298.145;  -10.525;32754.986
713.557;29382.805;  -13.175;34018.824
714.131;31171.949;  -13.245;34579.625
714.704;33012.707;  -13.175;33890.262
715.278;35092.922;  -11.545;33531.102
715.852;34312.922;  -10.975;33601.660
716.425;32908.508;  -10.075;33515.117
716.999;32476.309;  -12.185;33185.555
717.573;33201.980;   -9.685;33905.996
718.146;35490.938;  -10.516;35199.293
718.720;32831.031;  -12.106;35060.551
719.293;30693.826;  -12.386;34973.230
719.867;33725.352;  -12.456;36394.449
720.440;34437.277;  -10.686;36663.008
721.013;34270.320;  -12.596;35102.426
721.587;34278.395;  -13.956;33985.266
722.160;33714.313;   -9.806;33524.965
722.733;33212.859;  -11.676;32987.043
723.306;32067.531;  -14.276;33066.301
723.880;31649.506;  -12.126;33399.500
724.453;33118.305;  -10.156;33468.297
725.026;31916.982;  -12.956;33816.637
725.599;30088.816;  -11.676;32797.996
726.172;28797.742;  -12.337;33187.434
726.745;29144.832;  -11.277;35136.613
727.318;29112.697;  -11.927;35751.730
727.891;27807.586;  -13.607;35890.430
728.463;27716.199;  -11.327;34822.090
729.036;26762.639;  -11.917;32895.086
729.609;26978.010;  -12.697;31823.225
730.182;28107.426;  -11.787;31445.283
730.754;28554.859;  -12.957;32373.223
731.327;29183.059;  -11.017;33676.820
731.900;28173.742;  -12.797;33417.000
732.472;26453.930;  -10.677;31978.498
733.045;25433.473;  -12.797;30368.777
733.617;26271.564;  -13.908;30574.215
734.190;26576.818;  -12.258;31280.975
734.762;27474.418;  -13.438;31674.412
735.334;28363.188;  -11.758;31247.291
735.907;28301.404;  -11.158;29876.211
736.479;29228.621;  -11.258;29808.488
737.051;31403.096;  -10.918;30233.547
737.623;32570.225;  -11.038;31469.086
738.195;32812.977;  -12.188;31784.225
738.768;29703.502;  -11.378;32120.523
739.340;27968.682;  -12.598;32094.342
739.912;29308.457;  -11.568;31312.680
740.484;29888.123;   -9.348;31946.238
741.056;29230.590;  -12.628;32984.059
741.628;29170.531;  -13.349;33897.715
742.199;29412.447;  -11.309;33213.016
742.771;28357.266;  -12.699;31369.113
743.343;29698.947;  -11.919;31865.473
743.915;30488.615;  -11.679;32388.631
744.487;29505.926;  -12.249;31079.568
745.058;27864.424;  -11.119;30570.107
745.630;26478.365;   -9.439;29970.127
746.201;26696.709;  -11.949;29186.766
746.773;27506.035;  -12.639;28805.723
747.344;27021.072;  -11.039;29591.223
747.916;25271.240;  -12.549;31412.201
748.487;23655.451;  -12.659;32194.898
749.059;22922.607;  -13.059;32533.719
749.630;24916.375;  -12.080;32158.518
750.201;25062.500;  -13.100;30855.395
750.773;23715.400;  -15.310;28622.555
751.344;22948.230;  -12.240;28405.732
751.915;22414.227;  -11.960;28461.551
752.486;21571.549;  -13.200;27842.850
753.057;21317.641;  -15.230;27845.008
753.628;21636.191;  -13.130;27728.107
754.199;21939.398;  -12.720;27381.086
754.770;21660.432;  -10.680;25882.203
755.341;21635.885;  -11.010;25886.184
755.912;21228.525;  -12.990;26050.861
756.483;20062.303;  -11.110;26798.779
757.054;19288.158;  -12.190;27048.238
757.625;19525.848;  -13.981;26294.838
758.195;19452.170;  -11.041;26142.076
758.766;20324.541;  -11.861;26392.234
759.337;21328.973;  -11.461;26334.594
759.907;22251.680;  -15.001;27579.652
760.478;22082.500;   -9.681;28352.770
761.048;21471.498;  -12.421;27325.088
761.619;20893.705;  -11.761;26460.428
762.189;19301.063;  -12.391;26029.826
762.760;18391.863;  -10.201;26430.145
763.330;18915.588;  -10.811;26670.902
763.900;21561.213;  -10.261;26603.021
764.471;22287.449;  -13.061;25542.740
765.041;20263.803;  -11.051;24358.459
765.611;19704.510;  -11.032;23991.297
766.181;19385.369;  -10.532;24470.236
766.751;19290.113;  -13.502;24845.975
767.321;19621.225;  -11.392;24533.633
767.891;19971.479;  -11.522;24916.492
768.461;20260.480;  -13.672;24776.771
769.031;19616.650;  -14.652;24757.988
769.601;18720.568;  -10.182;24181.088
770.171;17609.777;  -11.752;23670.387
770.741;15949.820;  -12.272;22960.045
771.311;15520.283;  -13.112;22917.523
771.880;15761.709;  -14.122;23562.941
772.450;16560.379;  -11.782;24216.500
773.020;18767.244;  -12.642;24140.398
773.589;19067.244;  -13.043;24414.857
774.159;17157.727;  -11.783;23858.717
774.729;15788.793;  -13.473;22942.135
775.298;16258.767;  -14.523;22324.033
775.867;17134.055;  -12.013;21140.313
776.437;16541.408;  -12.113;20838.092
777.006;15207.622;  -13.543;20599.510
777.576;13928.579;  -12.523;20508.809
778.145;13086.824;  -12.173;20732.947
778.714;14063.972;  -12.153;21062.465
779.283;14687.450;  -11.833;20949.664
779.853;15521.841;  -13.483;20508.623
780.422;16469.164;  -12.933;20649.082
780.991;16121.078;  -13.173;21527.520
781.560;14366.213;  -10.224;22632.658
782.129;13524.199;  -12.684;23048.277
782.698;14618.048;  -11.284;23438.555
783.267;15872.750;  -11.684;23267.734
783.836;15206.015;  -10.974;22415.133
784.404;13567.329;  -13.534;20443.152
784.973;13182.948;  -16.734;19699.150
785.542;13117.749;  -12.594;19763.828
786.111;12714.800;  -11.644;20341.408
786.679;13094.015;  -11.384;20207.967
787.248;13914.874;  -12.014;19516.465
787.817;12880.067;  -12.804;18900.363
788.385;11734.488;  -11.994;17879.121
788.954;12023.149;  -12.564;17658.301
789.522;13671.878;  -12.225;17788.879
790.090;14208.007;  -13.775;18118.277
790.659;13219.257;  -12.485;18338.736
791.227;12262.691;  -12.295;18508.615
791.795;12184.464;  -13.415;17898.254
792.364;11658.870;  -12.995;17295.133
792.932;11181.282;   -8.365;16822.051
793.500;11436.243;  -11.925;17040.148
794.068;11890.131;  -13.245;17179.787
794.636;12166.104;  -13.815;16664.246
795.204;11567.063;  -13.375;16524.545
795.772;11261.588;  -12.125;17274.564
796.340;11471.215;  -13.855;17891.002
796.908;11779.595;  -13.456;17648.561
797.476;11359.306;  -13.116;17064.080
798.044;10811.231;  -13.226;16672.777
798.612;11461.731;  -11.236;17023.996
799.180;12596.933;  -10.476;16561.615
799.747;12698.077;  -11.746;15962.773
800.315;11540.689;  -12.366;15296.992
800.883;10425.620;  -14.616;14801.771
801.450; 9911.281;  -11.996;14534.430
802.018;10620.253;  -11.206;14173.248
802.585;10645.630;  -12.466;14029.547
803.153; 9843.812;  -12.846;13836.846
803.720; 9454.259;  -12.136;13567.324
804.287; 9104.134;  -10.966;13360.622
804.855; 9144.749;   -9.797;13681.981
805.422; 8966.976;  -13.037;13536.560
805.989; 8583.146;  -12.697;13355.958
806.556; 8740.829;  -11.737;13747.896
807.124; 9171.370;  -11.997;13987.376
807.691; 8813.152;  -13.997;14038.674
808.258; 8466.921;  -10.927;14120.152
808.825; 8850.938;  -13.727;13860.111
809.392; 9420.888;  -11.847;13268.790
809.959; 8963.090;  -14.217;12680.389
810.526; 7974.887;   -8.277;12427.308
811.093; 7495.061;   -9.647;12030.105
811.659; 7411.083;  -10.987;11653.664
812.226; 7130.017;  -13.447;11637.183
812.793; 7250.528;  -14.418;11611.521
813.360; 7732.698;  -13.908;11885.181
813.926; 7888.304;  -12.918;12770.539
814.493; 7682.594;  -14.888;12677.638
815.060; 7695.472;  -12.758;11974.336
815.626; 8017.161;  -13.478;11594.715
816.193; 8132.801;  -13.898;11579.474
816.759; 8012.260;  -13.588;11666.972
817.325; 8082.830;  -12.018;11325.530
817.892; 7792.891;  -14.068;11105.369
818.458; 6883.857;  -13.458;10843.928
819.024; 6396.877;  -11.968;10714.406
819.591; 6046.789;  -11.028;10469.165
820.157; 5737.795;  -12.088;10235.523
820.723; 5663.337;  -12.599;10847.563
821.289; 5884.134;  -10.419;11040.980
821.855; 6544.575;  -10.939;10357.100
822.421; 7143.168;  -12.539; 9978.918
822.987; 7119.259;  -13.259; 9754.177
823.553; 6492.120;  -15.369;10065.755
824.119; 6170.241;  -10.779;10036.294
824.685; 5818.012;   -9.999;10029.192
825.251; 5484.258;  -11.819;10199.230
825.816; 5231.251;  -13.369; 9820.189
826.382; 5289.659;  -12.679; 9297.248
826.948; 5566.016;  -11.199; 9381.347
827.513; 5487.310;  -11.179; 9450.726
828.079; 5350.377;  -13.489; 9472.444
828.645; 5549.316;  -12.500; 9292.643
829.210; 5918.024;  -15.120; 9065.341
829.776; 5929.085;  -12.590; 9132.620
830.341; 5696.721;  -11.540; 9092.878
830.906; 5526.046;  -12.400; 9078.557
831.472; 5374.442;  -12.720; 8534.535
832.037; 5019.081;  -11.490; 8677.874
832.602; 4535.312;  -14.380; 8628.692
833.167; 4550.306;  -12.780; 8879.031
833.733; 4748.250;  -11.100; 9189.790
834.298; 4953.705;  -12.080; 9052.608
834.863; 5063.447;  -13.910; 8895.087
835.428; 4896.465;  -13.470; 8824.266
835.993; 5090.857;  -11.760; 8845.385
836.558; 5464.097;  -12.731; 8888.563
837.123; 5682.169;  -12.431; 8966.582
837.688; 5552.779;  -11.241; 8617.860
838.253; 5259.949;  -13.681; 8590.699
838.817; 4901.025;  -12.531; 8443.797
839.382; 4874.662;  -12.671; 8799.356
839.947; 4853.220;  -11.541; 8810.595
840.511; 4683.727;  -12.021; 8796.394
841.076; 4665.027;  -13.071; 8347.231
841.641; 4661.900;  -11.411; 8224.330
842.205; 4462.420;  -13.671; 8223.349
842.770; 4324.581;  -11.291; 8622.107
843.334; 4399.347;  -12.951; 8410.386
843.898; 4513.065;  -11.221; 8337.465
844.463; 4534.148;  -11.322; 8506.283
845.027; 4400.588;  -11.412; 8280.962
845.591; 4131.256;  -11.512; 8231.141
846.156; 4194.424;  -14.042; 7969.179
846.720; 4407.201;  -12.152; 7768.278
847.284; 4427.030;  -10.922; 7630.957
847.848; 4209.141;  -10.962; 7472.395
848.412; 3882.740;  -14.612; 7437.394
848.976; 3780.971;  -11.492; 7674.592
849.540; 3799.489;   -9.172; 7836.011
850.104; 4057.839;  -11.232; 7913.669
850.668; 4494.659;  -15.182; 7694.508
851.232; 4322.188;  -15.332; 7756.887
851.796; 3929.424;  -13.703; 7926.545
852.359; 3922.965;  -11.113; 7827.844
852.923; 3997.250;  -11.843; 7641.163
853.487; 3950.238;  -11.173; 7342.501
854.050; 3818.110;  -13.443; 7042.820
854.614; 3644.225;  -13.823; 7151.338
855.177; 3577.558;  -16.393; 7105.077
855.741; 3702.087;  -11.693; 6989.675
856.304; 3798.220;  -10.843; 6596.634
856.868; 3737.592;  -13.783; 6356.272
857.431; 3532.639;  -11.953; 6468.571
857.995; 3386.808;  -13.683; 6373.210
858.558; 3452.559;  -11.433; 6324.448
859.121; 3524.626;  -12.493; 6408.327
859.684; 3545.187;  -12.384; 6347.886
860.247; 3544.746;  -14.774; 6321.264
860.810; 3417.249;  -13.154; 6301.903
861.374; 3259.285;  -11.264; 6607.881
861.937; 3169.520;  -15.424; 6408.200
862.500; 3123.713;  -12.854; 6572.639
863.062; 2942.744;  -12.344; 6387.297
863.625; 2551.009;  -13.314; 6190.836
864.188; 2003.383;  -14.724; 5807.254
864.751; 1676.636;  -13.464; 5682.413
865.314; 1632.139;  -11.684; 5547.492
865.876; 1807.279;  -11.104; 5500.150
866.439; 2093.060;  -12.344; 5415.909
867.002; 2273.791;  -13.494; 5501.567
867.564; 2403.475;  -10.935; 5413.946
868.127; 2399.418;  -12.665; 5160.325
868.689; 2288.544;  -14.515; 5133.183
869.252; 2316.579;  -13.425; 5252.382
869.814; 2366.072;  -11.595; 5297.141
870.377; 2412.128;  -12.175; 5390.919
870.939; 2329.361;  -10.265; 5599.898
871.501; 2236.271;  -12.375; 5248.336
872.063; 2222.181;  -14.355; 4854.235
872.626; 2279.023;  -14.435; 4817.074
873.188; 2227.133;  -12.415; 4987.732
873.750; 2206.946;  -14.555; 4868.651
874.312; 2228.972;  -11.185; 4779.330
874.874; 2177.555;  -12.715; 4866.348
875.436; 2018.552;  -13.196; 4718.887
875.998; 1906.977;  -11.426; 4660.005
876.560; 1838.185;   -9.786; 4462.964
877.122; 1836.355;  -12.796; 4145.042
877.683; 1792.391;  -13.226; 4056.481
878.245; 1711.651;  -12.036; 3950.740
878.807; 1637.839;  -11.536; 4058.958
879.369; 1598.137;  -10.806; 3954.677
879.930; 1656.102;  -13.946; 3941.495
880.492; 1773.277;  -11.876; 4067.014
881.053; 1747.854;  -13.216; 3859.633
881.615; 1639.762;  -12.226; 3776.071
882.176; 1577.472;  -12.946; 3734.750
882.738; 1556.344;  -10.736; 3678.489
883.299; 1495.502;  -12.057; 3405.407
883.860; 1381.488;  -12.677; 3351.106
884.422; 1305.398;  -14.097; 3394.044
884.983; 1250.964;  -13.667; 3166.443
885.544; 1194.731;  -10.717; 3189.802
886.105; 1137.732;  -14.357; 3160.360
886.666; 1080.162;  -14.287; 3093.059
887.227; 1031.389;  -14.297; 2941.957
887.788;  997.783;  -13.137; 2974.836
888.349;  936.611;  -14.637; 2721.214
888.910;  867.338;  -12.247; 2696.493
889.471;  860.815;  -10.577; 2560.172
890.032;  861.038;  -12.937; 2558.190
890.593;  849.024;  -12.487; 2567.669
891.153;  829.456;  -11.898; 2460.307
891.714;  791.176;  -14.278; 2372.046
892.275;  768.683;  -13.308; 2309.505
892.835;  732.397;  -12.058; 2382.543
893.396;  652.188;  -15.268; 2295.502
893.956;  597.829;  -13.278; 2162.420
894.517;  574.240;  -11.968; 2125.439
895.077;  577.075;  -12.798; 2086.978
895.638;  565.819;  -11.908; 2126.316
896.198;  552.161;  -13.288; 1838.275
896.758;  530.849;  -12.198; 1892.813
897.319;  503.270;  -13.048; 1792.232
897.879;  474.155;  -13.718; 1762.751
898.439;  435.988;  -14.138; 1661.149
898.999;  398.994;  -13.659; 1781.468
899.559;  377.974;  -14.699; 1703.347
900.119;  361.515;  -14.339; 1537.525
900.679;  337.417;  -11.789; 1638.384
901.239;  309.045;  -13.629; 1527.902
901.799;  292.614;  -13.679; 1456.441
902.359;  280.992;  -13.679; 1357.140
902.919;  273.989;  -14.159; 1331.118
903.479;  262.655;  -13.419; 1317.257
904.038;  248.591;  -14.899; 1262.595
904.598;  234.640;  -14.339; 1152.034
905.158;  225.226;  -13.959; 1240.893
905.717;  219.827;  -12.749; 1233.691
906.277;  216.625;  -11.889; 1217.330
906.836;  212.319;  -12.870; 1222.408
907.396;  206.113;  -11.790; 1193.047
907.955;  198.981;  -13.750; 1182.526
908.515;  190.439;  -14.760; 1099.364
909.074;  183.832;  -12.540; 1092.863
909.633;  179.023;  -12.120; 1069.121
910.192;  173.404;  -12.550; 1196.460
910.752;  169.407;  -12.760; 1029.960
911.311;  165.531;  -14.750; 1009.780
911.870;  161.870;  -13.860;  971.460
912.429;  162.052;  -13.480; 1094.080
912.988;  162.397;  -12.370; 1081.060
913.547;  158.269;  -14.670;  940.380
914.106;  156.057;  -12.800;  999.420
914.665;  155.255;  -11.370;  984.020
915.224;  153.176;  -11.430; 1035.760
915.782;  150.728;  -12.260;  922.560
916.341;  149.608;  -12.540; 1049.840
916.900;  146.872;  -12.540;  925.260
917.458;  145.825;  -13.480;  884.220
918.017;  144.876;  -12.470;  942.600
918.576;  143.679;  -13.450;  904.440
919.134;  143.297;  -12.890;  837.980
919.693;  142.394;  -15.480;  893.060
920.251;  140.513;  -14.420;  876.500
920.809;  139.391;  -12.170;  839.580
921.368;  139.358;  -13.650;  885.360
921.926;  138.758;  -12.750;  842.940
922.484;  138.051;  -14.150;  903.360
923.042;  137.161;  -15.100;  880.340
923.601;  139.304;  -10.990;  998.680
924.159;  137.912;  -12.470;  935.560
924.717;  137.611;  -15.640;  841.080
925.275;  138.440;  -12.380;  903.240
925.833;  138.465;  -12.710;  779.320
926.391;  141.699;  -11.200;  938.380
926.949;  142.160;  -16.000;  857.680
927.506;  143.867;  -12.260;  903.500
928.064;  145.081;  -11.300;  877.580
928.622;  146.381;  -13.750;  880.100
929.180;  145.500;  -15.290;  814.180
929.737;  143.237;  -14.500;  808.540
930.295;  141.382;  -10.630;  928.480
930.853;  138.309;  -14.590;  849.100
931.410;  135.878;  -14.450;  821.120
931.968;  137.450;  -14.390;  940.660
932.525;  140.942;  -13.050;  909.380
933.082;  146.888;  -15.620;  811.440
933.640;  155.048;  -15.650;  925.900
934.197;  157.743;  -13.610;  886.360
934.754;  162.274;  -13.320;  897.780
935.312;  163.261;  -13.370;  863.340
935.869;  165.212;  -12.780; 1012.980
936.426;  165.139;  -14.480;  872.800
936.983;  167.708;  -13.180;  889.020
937.540;  168.648;  -15.710;  838.280
938.097;  170.287;  -14.980;  940.120
938.654;  170.202;  -13.060;  898.860
939.211;  168.424;  -12.760;  952.480
939.768;  170.104;  -16.230;  915.420
940.324;  176.556;  -10.940;  904.200
940.881;  181.123;  -12.570;  878.500
941.438;  186.821;  -13.650; 1021.200
941.995;  183.914;  -13.300;  992.560
942.551;  182.415;  -15.800;  875.620
943.108;  181.321;  -14.180;  937.920
943.664;  175.809;  -13.890;  869.340
944.221;  175.562;  -12.640; 1088.140
944.777;  172.217;  -14.700;  869.680
945.334;  172.278;  -13.010;  884.840
945.890;  173.094;  -13.480;  946.480
946.446;  171.681;  -14.920;  947.020
947.003;  172.310;  -13.860;  964.940
947.559;  173.773;  -12.000; 1063.040
948.115;  173.037;  -10.510; 1026.540
948.671;  171.837;  -12.760;  967.300
949.227;  167.559;  -15.390;  859.560
949.783;  164.630;  -15.570;  858.900
950.339;  165.638;  -12.800;  991.000
950.895;  164.402;  -13.780; 1023.840
951.451;  160.190;  -13.810;  925.280
952.007;  160.065;  -12.390;  998.540
952.563;  159.484;  -11.980;  937.780
953.118;  155.471;  -14.070;  904.940
953.674;  153.605;  -14.140;  935.780
954.230;  153.324;  -12.680;  949.640
954.785;  152.838;  -12.770;  936.640
955.341;  153.696;  -11.450;  998.160
955.897;  148.269;  -15.350;  834.660
956.452;  147.473;  -14.200;  953.840
957.008;  145.904;  -10.820; 1083.640
957.563;  144.081;  -13.200; 1009.540
958.118;  139.016;  -14.460;  877.700
958.674;  137.302;  -13.840;  946.780
959.229;  137.580;  -10.670; 1013.980
959.784;  139.611;  -17.040;  832.400
960.339;  143.524;  -12.970; 1001.280
960.894;  141.911;  -12.700;  963.760
961.449;  140.360;  -13.790;  859.960
962.004;  146.435;  -11.760; 1212.840
962.559;  145.465;  -14.840;  860.140
963.114;  144.809;  -14.530;  742.480
963.669;  147.406;  -12.780;  915.500
964.224;  148.667;  -14.330;  874.340
964.779;  146.810;  -14.380;  828.420
965.334;  140.395;  -12.460; 1017.860
965.888;  134.934;  -13.490;  875.360
966.443;  135.386;  -14.140;  972.380
966.998;  130.825;  -16.240;  819.460
967.552;  127.739;  -12.730;  908.380
968.107;  124.411;  -14.510;  868.300
968.661;  125.495;  -11.850;  922.440
969.216;  122.730;  -14.370;  856.280
969.770;  121.990;  -13.010;  917.200
970.324;  122.183;  -12.460;  923.140
970.879;  123.232;  -11.580;  947.180
971.433;  122.397;  -13.130;  952.720
971.987;  120.179;  -12.360;  895.340
972.541;  119.110;  -14.330;  917.100
973.095;  120.215;  -13.310; 1009.460
973.649;  117.529;  -15.830;  809.480
974.203;  119.467;  -15.830;  829.040
974.757;  123.652;  -13.480;  855.220
975.311;  122.375;  -13.720;  872.600
975.865;  118.433;  -15.780;  881.820
976.419;  115.200;  -14.290;  857.400
976.973;  113.099;  -13.210;  849.620
977.526;  112.381;  -12.300;  949.920
978.080;  107.943;  -14.840;  796.780
978.634;  108.572;  -13.100;  921.320
979.187;  104.680;  -12.300;  905.400
979.741;  102.943;  -12.020; 1018.380
980.294;   96.925;  -14.590;  789.160
980.848;   92.960;  -14.390;  717.220
981.401;   93.403;  -14.280;  816.540
981.955;   95.761;  -11.920;  844.300
982.508;   93.384;  -15.790;  746.340
983.061;   91.892;  -12.070;  915.260
983.615;   89.217;  -13.260;  798.800
984.168;   86.786;  -15.540;  770.080
984.721;   87.128;  -13.230;  880.760
985.274;   85.088;  -11.820;  867.500
985.827;   82.940;  -13.510;  834.220
986.380;   80.361;  -14.840;  721.340
986.933;   80.671;  -13.970;  864.800
987.486;   78.886;  -12.450;  861.920
988.039;   77.100;  -11.170;  863.100
988.591;   74.820;  -13.070;  893.260
989.144;   70.926;  -15.530;  737.260
989.697;   69.460;  -14.300;  758.740
990.250;   69.115;  -13.310;  858.100
990.802;   67.861;  -14.490;  755.860
991.355;   69.783;  -12.980;  974.880
991.907;   67.819;  -13.715;  864.320
992.460;   65.855;  -14.450;  753.760
993.012;   65.578;  -12.590;  749.540
993.565;   64.346;  -15.180;  711.360
994.117;   64.560;  -11.630;  950.780
994.669;   61.594;  -13.760;  701.320
995.221;   61.037;  -12.710;  791.920
995.774;   60.544;  -14.620;  787.580
996.326;   57.730;  -13.150;  740.220
996.878;   58.150;  -12.880;  838.420
997.430;   57.715;  -14.580;  699.860
997.982;   57.306;  -14.030;  750.140
998.534;   55.839;  -12.190;  739.060
999.086;   54.351;  -12.990;  738.220
999.638;   54.282;  -13.180;  661.380
1000.190;   53.111;  -14.970;  699.320
1000.741;   52.613;  -12.200;  742.700
1001.293;   51.730;  -13.400;  686.020
1001.845;   52.096;  -14.490;  676.640
1002.396;   52.949;  -15.280;  743.400
1002.948;   51.303;  -12.380;  737.400
1003.500;   50.399;  -13.260;  723.780
1004.051;   51.495;  -13.730;  907.580
1004.603;   50.454;  -12.300;  791.820
1005.154;   46.619;  -15.330;  608.980
1005.705;   46.200;  -12.800;  723.960
1006.257;   45.961;  -13.900;  707.220
1006.808;   45.204;  -14.430;  685.460
1007.359;   43.799;  -12.010;  763.240
1007.910;   42.060;  -12.690;  646.640
1008.461;   43.382;  -13.610;  732.940
1009.013;   41.237;  -14.990;  588.340
1009.564;   41.425;  -11.860;  793.520
1010.115;   39.330;  -12.640;  597.040
1010.665;   40.513;  -14.570;  602.160
1011.216;   40.680;  -15.190;  667.920
1011.767;   39.108;  -13.470;  697.920
1012.318;   39.256;  -13.760;  736.980
1012.869;   38.420;  -15.950;  679.000
1013.419;   39.210;  -15.880;  603.120
1013.970;   38.243;  -14.540;  666.640
1014.521;   37.478;  -13.220;  620.620
1015.071;   38.073;  -15.020;  670.380
1015.622;   37.573;  -17.510;  635.460
1016.172;   35.968;  -14.130;  596.820
1016.723;   36.459;  -14.220;  614.380
1017.273;   36.154;  -15.370;  604.160
1017.823;   36.547;  -15.290;  650.340
1018.374;   35.947;  -13.420;  611.760
1018.924;   36.093;  -11.740;  716.880
1019.474;   36.889;  -12.250;  718.880
1020.024;   35.515;  -15.850;  657.580
1020.574;   35.412;  -13.280;  726.160
1021.124;   35.072;  -13.560;  673.580
1021.674;   34.053;  -13.790;  559.120
1022.224;   35.804;  -14.610;  708.940
1022.774;   33.842;  -13.100;  668.820
1023.324;   34.961;  -11.470;  753.520
1023.874;   36.872;  -11.990;  875.760
1024.423;   33.993;  -14.550;  613.700
1024.973;   32.606;  -14.440;  610.760
1025.523;   32.300;  -13.250;  620.960
1026.072;   32.999;  -15.200;  606.420
1026.622;   32.436;  -14.590;  675.740
1027.172;   33.105;  -11.080;  715.660
1027.721;   31.230;  -14.010;  601.220
1028.270;   32.200;  -13.690;  663.400
1028.820;   31.982;  -15.380;  638.080
1029.369;   31.257;  -14.980;  612.700
1029.918;   31.305;  -13.100;  649.840
1030.468;   31.116;  -13.680;  564.780
1031.017;   31.489;  -13.770;  634.800
1031.566;   29.440;  -14.100;  608.900
1032.115;   30.518;  -11.770;  694.500
1032.664;   29.635;  -14.940;  596.480
1033.213;   30.855;  -13.370;  735.420
1033.762;   29.344;  -13.660;  635.620
1034.311;   29.260;  -13.650;  677.220
1034.860;   30.272;  -13.820;  691.000
1035.408;   30.624;  -12.860;  722.720
1035.957;   29.506;  -13.060;  719.540
1036.506;   26.415;  -14.510;  530.800
1037.055;   30.519;  -13.470;  844.320
1037.603;   28.730;  -14.800;  664.000
1038.152;   26.758;  -14.190;  534.760
1038.700;   27.306;  -11.810;  585.740
1039.249;   27.883;  -12.850;  681.220
1039.797;   28.147;  -14.610;  633.360
1040.345;   26.810;  -15.220;  705.420
1040.894;   26.465;  -13.480;  625.300
1041.442;   27.031;  -13.310;  632.200
1041.990;   25.887;  -14.510;  559.160
1042.538;   24.774;  -15.700;  536.180
1043.087;   25.344;  -13.910;  570.860
1043.635;   27.325;  -13.620;  670.500
1044.183;   26.044;  -14.230;  586.400
1044.731;   25.314;  -13.730;  576.000
1045.279;   25.601;  -13.970;  674.920
1045.827;   28.222;  -10.750;  892.400
1046.374;   24.607;  -15.230;  515.420
1046.922;   23.677;  -15.390;  590.580
1047.470;   25.788;  -12.320;  691.300
1048.018;   25.368;  -13.230;  647.960
1048.565;   26.359;  -13.390;  708.600
1049.113;   22.979;  -15.030;  557.000
1049.660;   23.708;  -12.540;  629.660
1050.208;   24.593;  -15.040;  675.640
1050.755;   24.199;  -14.680;  606.580
1051.303;   24.075;  -13.610;  686.820
1051.850;   23.065;  -14.340;  635.120
1052.397;   22.490;  -16.330;  473.960
1052.945;   23.030;  -15.710;  617.760
1053.492;   23.324;  -12.320;  741.840
1054.039;   23.253;  -13.730;  720.180
1054.586;   22.849;  -16.140;  557.240
1055.133;   23.315;  -14.020;  693.140
1055.680;   22.998;  -13.430;  646.620
1056.227;   21.444;  -14.570;  542.780
1056.774;   23.902;  -14.400;  794.980
1057.321;   22.130;  -14.230;  523.260
1057.868;   21.444;  -14.220;  651.320
1058.415;   21.139;  -14.060;  651.980
1058.961;   22.934;  -14.640;  678.940
1059.508;   21.686;  -13.970;  643.820
1060.055;   20.853;  -15.100;  581.780
1060.601;   21.490;  -12.180;  624.300
1061.148;   21.307;  -15.010;  616.820
1061.694;   20.678;  -14.750;  592.580
1062.241;   20.880;  -14.130;  596.320
1062.787;   20.906;  -14.770;  663.140
1063.334;   23.119;  -13.130;  808.560
1063.880;   21.322;  -14.420;  668.360
1064.426;   20.011;  -13.130;  706.820
1064.972;   18.811;  -13.960;  601.340
1065.518;   18.417;  -13.680;  566.640
1066.065;   20.063;  -15.720;  624.460
1066.611;   18.097;  -13.970;  598.800
1067.157;   19.201;  -13.920;  641.860
1067.703;   20.269;  -14.760;  668.480
1068.249;   19.133;  -14.490;  605.220
1068.794;   18.267;  -14.740;  626.880
1069.340;   18.038;  -13.220;  578.960
1069.886;   18.372;  -14.930;  590.700
1070.432;   17.827;  -14.700;  541.720
1070.977;   17.312;  -14.470;  601.080
1071.523;   17.662;  -14.330;  573.060
1072.068;   18.386;  -14.960;  582.000
1072.614;   18.380;  -16.220;  527.760
1073.160;   18.789;  -11.280;  687.040
1073.705;   16.129;  -15.990;  572.520
1074.250;   17.316;  -16.550;  559.900
1074.796;   18.033;  -14.600;  655.160
1075.341;   17.785;  -13.440;  664.100
1075.886;   17.158;  -14.450;  594.240
1076.431;   17.547;  -13.160;  649.880
1076.976;   17.386;  -14.710;  639.220
1077.521;   16.189;  -14.000;  583.080
1078.067;   15.778;  -14.470;  579.400
1078.612;   16.962;  -14.530;  661.620
1079.156;   16.586;  -15.660;  601.540
1079.701;   16.198;  -16.120;  693.260
1080.246;   16.722;  -12.960;  696.300
1080.791;   16.092;  -13.700;  625.020
1081.336;   16.559;  -15.540;  659.320
1081.880;   15.269;  -14.640;  649.680
1082.425;   14.930;  -14.220;  573.480
1082.970;   17.440;  -11.890;  717.040
1083.514;   15.770;  -13.820;  597.000
1084.059;   14.265;  -14.280;  586.720
1084.603;   14.096;  -12.890;  565.840
1085.147;   14.931;  -13.590;  645.220
1085.692;   15.903;  -14.050;  716.800
1086.236;   13.594;  -14.990;  503.140
1086.780;   15.388;  -12.640;  751.440
1087.325;   14.994;  -15.550;  654.620
1087.869;   15.092;  -14.980;  610.700
1088.413;   15.214;  -13.440;  705.040
1088.957;   13.197;  -12.170;  543.400
1089.501;   15.835;  -12.730;  766.640
1090.045;   15.201;  -14.650;  726.480
1090.589;   11.934;  -14.500;  569.920
1091.133;   14.353;  -12.320;  673.340
1091.676;   14.464;  -16.130;  591.940
1092.220;   12.712;  -13.930;  600.920
1092.764;   14.228;  -12.820;  706.960
1093.307;   13.701;  -11.700;  673.780
1093.851;   12.597;  -15.600;  556.540
1094.395;   13.554;  -13.920;  683.140
1094.938;   12.457;  -16.090;  632.520
1095.482;   12.541;  -13.820;  559.800
1096.025;   14.681;  -12.720;  710.880
1096.568;   14.736;  -12.100;  779.280
1097.112;   10.167;  -15.450;  508.180
1097.655;   12.218;  -14.310;  603.000
1098.198;   10.998;  -14.740;  600.180
1098.741;   12.163;  -15.550;  612.860
1099.285;   11.747;  -12.600;  657.300
1099.828;    9.466;  -15.050;  439.400
1100.371;   11.618;  -14.800;  608.160
1100.914;   12.365;  -16.480;  682.660
1101.457;   11.509;  -12.990;  679.900
1101.999;    9.819;  -14.110;  584.680
1102.542;   11.805;  -11.450;  641.440
1103.085;   11.496;  -13.350;  658.500
1103.628;   11.339;  -13.200;  762.060
1104.170;   10.722;  -12.310;  588.280
1104.713;   10.809;  -14.320;  646.700
1105.256;   10.355;  -16.110;  557.440
1105.798;    8.917;  -15.910;  499.980
1106.341;   10.908;  -12.200;  728.900
1106.883;   10.058;  -14.910;  521.340
1107.425;   10.884;  -14.960;  668.180
1107.968;    9.545;  -13.440;  612.380
1108.510;   10.157;  -14.010;  684.960
1109.052;    9.684;  -15.430;  612.620
1109.594;    9.819;  -15.290;  554.440
1110.136;    9.394;  -13.360;  643.220
1110.679;    8.642;  -13.820;  633.080
1111.221;   10.009;  -13.690;  604.460
1111.763;    9.672;  -14.890;  559.220
1112.304;    8.045;  -14.550;  547.140
1112.846;    9.366;  -12.760;  666.240
1113.388;   13.067;  -10.780;  942.180
1113.930;    9.587;  -12.690;  694.200
1114.472;    8.100;  -15.730;  606.540
1115.013;    6.765;  -14.620;  551.280
1115.555;    8.000;  -14.950;  587.100
1116.097;    7.379;  -16.460;  579.480
1116.638;    7.985;  -13.730;  684.600
1117.180;    8.300;  -13.810;  667.740
1117.721;    8.153;  -13.280;  568.580
1118.262;    9.753;  -15.080;  677.960
1118.804;    8.679;  -14.040;  637.340
1119.345;    7.075;  -15.430;  578.400
1119.886;    8.459;  -15.240;  704.040
1120.427;    7.875;  -15.820;  589.020
1120.969;    6.876;  -14.550;  597.920
1121.510;    6.094;  -14.030;  563.060
1122.051;    8.535;  -11.990;  723.580
1122.592;    7.220;  -16.490;  655.420
1123.133;    5.138;  -15.580;  547.940
1123.673;    6.510;  -12.850;  706.480
1124.214;    6.981;  -13.630;  612.460
1124.755;    7.691;  -14.830;  639.460
1125.296;    6.657;  -13.110;  627.320
1125.836;    7.232;  -11.320;  691.500
1126.377;    6.932;  -14.330;  599.660
1126.918;    7.724;  -12.800;  614.980
1127.458;    5.417;  -13.580;  622.220
1127.999;    7.341;  -10.330;  656.980
1128.539;    7.200;  -13.390;  694.240
1129.079;    6.916;  -16.420;  632.720
1129.620;    4.204;  -15.700;  558.100
1130.160;    4.396;  -14.790;  539.480
1130.700;    6.157;  -12.910;  640.840
1131.240;    6.786;  -15.610;  643.700
1131.781;    5.152;  -12.920;  619.680
1132.321;    5.518;  -15.300;  599.120
1132.861;    5.079;  -14.760;  564.200
1133.401;    5.063;  -15.470;  593.940
1133.941;    5.520;  -13.710;  626.280
1134.481;    4.400;  -11.820;  597.580
1135.020;    4.990;  -14.810;  609.160
1135.560;    5.991;  -13.660;  674.940
1136.100;    3.711;  -13.940;  501.160
1136.640;    2.969;  -15.410;  510.480
1137.179;    3.761;  -16.920;  537.960
1137.719;    4.439;  -16.430;  605.400
1138.258;    3.689;  -16.300;  587.360
1138.798;    5.217;  -13.710;  663.780
1139.337;    3.581;  -13.840;  482.840
1139.877;    4.721;  -16.140;  642.360
1140.416;    6.786;  -11.410;  878.060
1140.955;    2.997;  -12.820;  535.380
1141.494;    4.013;  -12.310;  669.280
1142.034;    4.172;  -16.280;  583.520
1142.573;    3.913;  -13.090;  646.280
1143.112;    2.646;  -13.770;  553.480
1143.651;    4.690;  -15.830;  536.480
1144.190;    4.573;  -15.010;  691.640
1144.729;    3.265;  -13.650;  607.420
1145.267;    3.001;  -13.670;  584.900
1145.806;    4.486;  -13.630;  637.040
1146.345;    3.969;  -14.160;  635.020
1146.884;    2.917;  -11.180;  622.500
1147.422;    1.637;  -15.890;  533.060
1147.961;    4.413;  -12.760;  708.460
1148.500;    4.369;  -15.220;  669.720
1149.038;    3.486;  -13.720;  632.500
1149.577;    2.830;  -13.250;  698.640
1150.115;    0.866;  -16.790;  452.280
1150.653;    2.362;  -15.810;  607.340
1151.192;    2.476;  -14.730;  552.920
1151.730;    2.542;  -13.660;  652.560
1152.268;    2.609;  -15.120;  589.520
1152.806;    2.294;  -15.580;  571.180
1153.344;    1.510;  -16.210;  577.640
1153.882;    2.066;  -12.810;  600.060
1154.421;    0.772;  -14.150;  470.620
1154.958;    2.337;  -15.360;  595.240
1155.496;    1.962;  -14.710;  645.280
1156.034;    2.276;  -13.640;  721.880
1156.572;    3.257;  -13.740;  667.060
1157.110;    0.943;  -16.960;  473.940
1157.647;    1.691;  -11.940;  676.960
1158.185;    0.548;  -14.090;  564.320
1158.723;    0.350;  -13.610;  509.200
1159.260;    2.511;  -14.760;  701.700
1159.798;    1.714;  -13.700;  658.160
1160.335;    0.850;  -13.820;  631.820

