
Integration time [ms]:   3.882
Averaging Nr. [scans]: 1000
Smoothing Nr. [pixels]: 0
Data measured with spectrometer [name]: 7414430SP
Wave   ;Sample   ;Dark     ;Reference
[nm]   ;[counts] ;[counts] ;[counts] 

288.544;  131.215;   10.292;  793.890
289.143;  133.432;    4.564;  681.602
289.742;  135.395;    6.144;  828.814
290.341;  121.915;    4.396;  789.841
290.940;  111.866;    0.938;  730.702
291.538;  114.080;   -0.684;  881.108
292.137;  113.867;   -2.845;  792.581
292.736;  116.870;   -0.144;  975.101
293.335;  111.983;   -6.352;  735.086
293.934;  112.422;   -7.642;  781.677
294.532;  113.412;   -4.992; 1031.958
295.131;   98.934;   -5.478;  834.394
295.730;   99.842;   -6.549;  809.588
296.328;   97.418;   -9.558;  783.442
296.927;   97.575;   -8.118;  779.652
297.525;   98.289;   -6.908;  781.236
298.124;   87.640;   -9.195;  654.009
298.722;   93.871;   -8.198;  761.933
299.321;   92.090;   -8.817;  708.597
299.919;   89.294;   -7.716;  751.918
300.518;   85.297;  -10.745;  689.338
301.116;   87.078;   -9.647;  691.381
301.715;   88.159;  -10.828;  730.222
302.313;   87.004;   -6.087;  704.943
302.911;   81.904;   -6.824;  733.830
303.509;   87.466;   -8.807;  925.627
304.108;   85.779;   -8.198;  760.383
304.706;   85.477;   -6.218;  801.664
305.304;   79.147;   -7.185;  796.707
305.902;   85.421;   -8.568;  784.484
306.500;   79.914;   -7.737;  728.200
307.098;   78.947;   -6.026;  746.560
307.696;   76.619;   -7.176;  780.432
308.294;   77.014;   -8.656;  731.359
308.892;   79.525;   -6.838;  759.769
309.490;   75.930;   -2.596;  712.161
310.088;   73.806;   -4.485;  788.444
310.686;   78.320;   -3.907;  821.749
311.284;   75.525;   -2.806;  766.040
311.882;   72.134;   -2.845;  731.225
312.480;   68.667;   -3.274;  697.167
313.078;   71.121;   -3.645;  808.331
313.675;   71.867;   -4.997;  691.600
314.273;   66.934;   -0.894;  797.837
314.871;   65.446;   -2.854;  589.829
315.468;   64.173;   -3.644;  652.090
316.066;   67.956;   -3.947;  694.427
316.664;   60.539;   -1.824;  656.351
317.261;   65.223;    1.565;  910.128
317.859;   60.138;   -3.955;  768.735
318.456;   61.758;   -2.886;  830.096
319.054;   58.157;   -0.995;  787.828
319.651;   56.015;   -1.765;  759.928
320.249;   55.865;   -3.685;  810.188
320.846;   54.494;   -3.736;  714.286
321.443;   51.672;   -2.065;  832.135
322.041;   48.679;   -5.635;  812.315
322.638;   47.026;   -5.985;  701.456
323.235;   49.999;   -6.677;  665.683
323.833;   48.089;   -3.497;  740.354
324.430;   42.551;   -6.756;  615.900
325.027;   44.500;   -7.647;  876.855
325.624;   45.835;   -7.598;  644.532
326.221;   43.116;   -5.848;  689.717
326.818;   41.860;   -5.777;  818.332
327.415;   44.867;   -8.769;  748.828
328.012;   45.213;   -6.299;  690.585
328.609;   42.268;   -6.639;  731.389
329.206;   40.584;   -6.358;  778.621
329.803;   39.612;   -8.698;  737.841
330.400;   42.913;   -8.379;  704.260
330.997;   43.164;   -6.178;  817.147
331.594;   39.324;   -5.646;  788.185
332.191;   44.826;   -6.928;  728.722
332.787;   46.320;   -6.057;  844.463
333.384;   43.970;   -6.445;  763.093
333.981;   41.631;   -8.002;  815.687
334.578;   43.355;   -8.443;  708.378
335.174;   46.271;   -6.053;  731.469
335.771;   45.974;   -5.791;  836.456
336.367;   43.074;   -6.570;  710.631
336.964;   45.351;   -6.741;  793.266
337.561;   45.152;   -5.710;  731.112
338.157;   40.949;   -3.928;  911.916
338.754;   36.949;   -5.577;  796.589
339.350;   35.418;   -9.667;  722.493
339.946;   40.398;   -5.269;  773.135
340.543;   31.623;   -4.485;  846.136
341.139;   26.295;   -7.584;  720.836
341.735;   24.997;   -8.553;  772.593
342.332;   23.923;   -4.984;  691.472
342.928;   24.602;   -3.475;  795.394
343.524;   19.454;   -6.653;  761.684
344.120;   16.339;   -7.173;  738.562
344.716;   20.669;   -4.385;  723.717
345.313;   17.687;   -3.565;  795.342
345.909;   13.201;   -7.495;  627.336
346.505;   15.674;   -8.276;  740.247
347.101;   16.278;   -5.697;  827.864
347.697;   17.053;   -4.767;  785.398
348.293;   10.411;   -7.226;  627.244
348.889;   12.158;   -7.547;  745.914
349.485;   12.424;   -9.147;  688.205
350.081;   13.283;   -6.568;  772.592
350.676;    8.139;   -6.516;  691.606
351.272;   12.235;   -7.378;  809.530
351.868;   13.125;   -6.759;  780.497
352.464;   10.002;   -4.798;  723.932
353.059;    5.822;   -7.977;  646.017
353.655;    9.334;   -8.769;  777.063
354.251;   12.492;   -5.920;  759.845
354.846;    5.284;   -7.647;  740.646
355.442;    3.322;   -6.956;  753.071
356.038;    5.291;   -9.928;  751.708
356.633;    6.387;   -7.698;  728.594
357.229;    4.439;   -6.307;  724.757
357.824;    1.302;   -7.647;  703.600
358.420;    0.405;  -10.047;  679.726
359.015;    2.972;   -7.458;  695.357
359.610;    3.871;   -5.748;  763.920
360.206;   -3.845;   -9.346;  603.240
360.801;    0.596;  -11.268;  646.503
361.396;    2.900;   -8.789;  725.975
361.992;   -1.600;   -6.347;  668.220
362.587;   -4.278;   -6.476;  670.160
363.182;   -2.583;   -9.457;  689.631
363.777;   -0.850;   -7.147;  738.242
364.372;   -1.246;   -5.507;  737.314
364.967;   -6.217;   -6.386;  680.744
365.563;   -0.672;   -7.858;  815.567
366.158;   -3.672;   -8.517;  685.161
366.753;   -3.003;   -8.728;  649.263
367.348;   -5.210;   -7.677;  746.056
367.942;   -5.195;  -10.387;  697.298
368.537;   -5.303;   -7.187;  754.245
369.132;   -5.276;   -8.587;  703.428
369.727;   -9.732;   -8.606;  638.079
370.322;   -7.642;  -10.426;  580.186
370.917;   -7.225;   -5.776;  710.646
371.511;   -4.174;   -6.007;  861.834
372.106;   -8.531;   -6.686;  776.964
372.701;  -12.279;   -9.335;  585.988
373.296;   -4.900;   -6.777;  863.135
373.890;  -10.562;   -7.546;  647.840
374.485;  -12.546;   -8.755;  691.199
375.079;   -8.716;   -9.797;  738.685
375.674;   -6.700;   -6.327;  812.970
376.268;  -11.183;   -9.046;  691.759
376.863;  -17.422;   -7.993;  580.327
377.457;  -10.360;   -9.206;  662.490
378.052;  -11.537;   -5.345;  764.884
378.646;  -12.904;   -5.605;  741.167
379.240;  -14.137;   -6.825;  721.176
379.835;  -12.757;  -10.476;  636.978
380.429;  -13.979;   -8.676;  562.557
381.023;  -13.888;   -4.945;  779.205
381.617;  -17.264;   -8.094;  680.106
382.212;  -13.142;  -10.646;  685.303
382.806;  -11.232;   -8.136;  760.690
383.400;  -16.316;   -7.855;  672.281
383.994;  -17.355;   -8.125;  664.870
384.588;  -12.977;   -7.637;  697.701
385.182;  -11.284;   -7.458;  726.624
385.776;  -12.747;   -6.277;  706.875
386.370;  -16.890;   -7.485;  681.968
386.964;  -14.533;   -9.416;  684.155
387.558;  -12.641;   -8.518;  598.360
388.152;  -16.327;   -7.096;  681.959
388.745;  -14.578;   -7.656;  814.707
389.339;  -13.352;   -8.927;  747.642
389.933;  -11.846;   -9.538;  695.370
390.527;  -12.555;   -5.857;  859.029
391.120;  -19.614;   -9.455;  595.318
391.714;  -15.871;   -9.746;  711.633
392.308;  -11.796;   -7.857;  780.253
392.901;  -16.630;   -9.106;  642.460
393.495;  -17.725;  -10.365;  595.414
394.089;  -16.016;   -9.696;  760.452
394.682;  -16.384;   -7.016;  697.188
395.275;  -16.612;   -8.466;  719.927
395.869;  -19.324;   -8.985;  667.314
396.462;  -16.345;  -11.496;  616.609
397.056;  -11.723;   -7.838;  776.621
397.649;  -16.780;   -6.895;  731.575
398.242;  -14.222;   -5.017;  712.645
398.836;  -14.145;   -8.787;  766.408
399.429;  -13.684;   -8.967;  631.041
400.022;  -18.091;   -8.815;  665.902
400.615;  -15.195;   -6.276;  805.609
401.208;  -13.420;   -8.407;  691.451
401.802;  -15.332;   -7.296;  699.329
402.395;  -16.440;   -7.585;  683.502
402.988;  -18.128;   -8.015;  696.627
403.581;  -15.189;   -9.577;  646.878
404.174;  -11.118;   -7.588;  686.568
404.767;  -14.302;   -7.906;  638.583
405.360;  -17.862;   -7.875;  621.445
405.953;  -11.900;   -8.127;  759.034
406.545;  -11.413;   -7.198;  725.342
407.138;  -14.348;   -8.916;  618.350
407.731;  -14.219;   -9.767;  613.303
408.324;   -9.141;  -10.659;  660.554
408.917;  -11.228;   -8.068;  681.864
409.509;  -12.210;   -9.837;  740.396
410.102;  -14.834;   -8.146;  643.948
410.695;   -8.578;   -7.969;  665.758
411.287;   -9.154;   -8.579;  599.821
411.880;   -9.944;   -6.968;  585.421
412.472;  -13.714;   -9.487;  613.092
413.065;  -11.395;  -10.338;  629.408
413.657;   -7.843;   -9.169;  576.678
414.250;   -7.707;  -10.119;  646.681
414.842;   -9.752;   -9.938;  676.353
415.434;   -7.415;  -10.409;  570.463
416.027;   -2.780;   -9.591;  652.196
416.619;   -5.347;   -7.379;  713.400
417.211;   -6.598;   -9.159;  599.352
417.804;   -1.740;   -9.191;  628.499
418.396;   -5.296;   -8.159;  607.643
418.988;   -3.040;   -6.960;  659.238
419.580;   -7.353;  -11.389;  568.276
420.172;   -4.766;  -13.460;  536.196
420.764;    0.948;  -10.701;  672.482
421.356;   -1.000;   -8.961;  636.898
421.948;   -2.504;   -9.770;  677.661
422.540;    3.312;   -8.832;  680.027
423.132;    2.410;   -8.153;  600.641
423.724;   -0.708;   -8.481;  561.267
424.316;    0.885;   -9.261;  621.345
424.908;    5.064;   -9.643;  591.517
425.500;    5.632;   -8.663;  647.978
426.092;    6.489;   -8.503;  648.268
426.683;    4.093;  -10.522;  684.836
427.275;    8.176;  -11.734;  641.471
427.867;   10.364;  -10.264;  668.948
428.458;   10.287;   -7.644;  732.344
429.050;    7.639;   -7.853;  680.749
429.642;   10.902;   -8.904;  743.124
430.233;   11.710;  -10.795;  569.356
430.825;   13.292;   -7.665;  724.809
431.416;   10.030;   -8.843;  698.241
432.008;   14.013;   -9.885;  651.723
432.599;   15.406;   -9.966;  656.073
433.190;   12.019;   -9.164;  637.670
433.782;   11.024;   -8.584;  590.395
434.373;   19.364;   -8.296;  884.765
434.964;   17.855;   -9.896;  602.920
435.556;   15.555;   -8.255;  634.537
436.147;   18.203;   -8.075;  758.490
436.738;   17.725;   -9.716;  701.099
437.329;   24.164;   -7.318;  721.723
437.920;   17.560;   -6.694;  666.688
438.511;   15.694;   -9.644;  564.526
439.103;   22.885;   -9.427;  623.998
439.694;   25.727;  -10.748;  681.583
440.285;   26.426;   -7.997;  764.432
440.876;   24.724;  -10.046;  845.738
441.466;   23.783;  -13.467;  575.162
442.057;   30.170;   -9.329;  665.814
442.648;   27.916;   -7.707;  746.255
443.239;   25.736;   -9.017;  620.477
443.830;   31.239;  -10.279;  704.958
444.421;   33.887;  -12.630;  655.474
445.011;   30.804;   -8.697;  693.619
445.602;   28.974;   -7.787;  743.126
446.193;   31.992;  -13.329;  488.117
446.783;   36.508;   -9.171;  640.397
447.374;   32.199;   -7.457;  692.759
447.964;   31.970;   -9.277;  713.770
448.555;   41.453;   -9.041;  822.742
449.145;   37.323;   -8.969;  662.853
449.736;   38.858;   -6.809;  803.179
450.326;   38.796;   -7.229;  713.626
450.917;   43.292;  -11.391;  675.324
451.507;   42.956;   -9.501;  600.661
452.097;   43.384;   -8.460;  746.267
452.688;   44.500;  -10.080;  742.160
453.278;   43.761;  -12.861;  566.840
453.868;   49.903;   -8.372;  793.550
454.458;   47.266;   -8.131;  651.141
455.048;   46.874;   -8.520;  711.783
455.639;   49.193;  -13.632;  567.096
456.229;   53.479;  -10.143;  710.694
456.819;   54.986;   -9.163;  751.158
457.409;   55.159;   -8.652;  773.993
457.999;   58.615;   -9.933;  737.505
458.589;   58.815;  -10.363;  686.606
459.179;   58.381;  -10.633;  717.658
459.769;   55.994;  -12.442;  627.099
460.358;   61.762;   -9.844;  797.262
460.948;   61.094;   -9.924;  689.503
461.538;   62.771;  -10.484;  660.677
462.128;   59.300;  -10.703;  664.934
462.717;   66.565;  -11.486;  710.326
463.307;   71.461;  -10.767;  705.846
463.897;   66.839;   -8.814;  656.942
464.486;   65.586;   -8.182;  837.128
465.076;   70.812;   -9.985;  733.776
465.666;   74.235;  -10.447;  652.900
466.255;   72.894;   -7.754;  785.651
466.845;   71.053;  -10.884;  666.749
467.434;   74.078;  -12.525;  725.873
468.023;   76.280;  -11.456;  658.357
468.613;   72.780;   -9.173;  713.946
469.202;   77.104;   -9.306;  646.507
469.791;   81.029;   -8.917;  737.811
470.381;   84.395;   -9.657;  742.813
470.970;   83.938;   -9.947;  711.099
471.559;   83.518;   -9.256;  733.291
472.148;   87.548;  -13.397;  675.737
472.738;   90.459;   -9.928;  765.466
473.327;   89.302;  -10.897;  637.529
473.916;   88.534;   -8.526;  737.446
474.505;   92.840;  -11.078;  751.703
475.094;   96.855;   -9.559;  806.570
475.683;   95.927;   -8.838;  797.699
476.272;   96.888;  -10.198;  730.632
476.861;   99.827;  -11.489;  706.754
477.449;  106.752;  -10.721;  728.487
478.038;  100.509;   -9.818;  692.513
478.627;  101.672;   -9.887;  714.852
479.216;  108.706;  -10.030;  769.441
479.805;  112.357;   -9.401;  783.375
480.393;  112.706;   -5.739; 1008.945
480.982;  110.144;   -7.838;  874.501
481.571;  117.469;   -9.111;  858.333
482.159;  119.330;  -10.601;  705.386
482.748;  118.965;   -8.500;  821.385
483.336;  123.277;   -9.241;  858.209
483.925;  123.667;  -10.440;  774.373
484.513;  131.380;  -11.063;  758.962
485.102;  127.221;   -9.540;  810.965
485.690;  135.550;   -6.742; 1011.050
486.278;  138.864;   -8.442;  979.329
486.867;  139.100;  -10.472;  809.662
487.455;  141.128;   -8.811;  898.229
488.043;  141.978;  -10.721;  748.361
488.631;  151.816;  -10.393; 1005.079
489.220;  157.129;  -10.843;  908.626
489.808;  156.353;  -10.572;  741.415
490.396;  164.563;  -10.482;  914.645
490.984;  172.724;  -11.542;  830.161
491.572;  183.604;   -8.463;  940.315
492.160;  190.743;   -8.491;  919.081
492.748;  201.666;   -9.681;  884.341
493.336;  224.390;  -10.493; 1019.693
493.924;  252.827;   -9.354;  958.077
494.512;  286.185;   -9.132; 1066.638
495.100;  329.893;   -9.001; 1103.280
495.687;  386.844;  -11.924; 1206.373
496.275;  467.192;  -11.193; 1150.796
496.863;  552.703;   -9.241; 1281.171
497.451;  661.477;  -11.341; 1386.805
498.038;  793.705;  -11.364; 1556.729
498.626;  910.783;   -8.104; 1741.407
499.214; 1087.642;   -8.842; 2016.609
499.801; 1343.112;  -10.112; 2220.633
500.389; 1581.287;  -11.953; 2312.494
500.976; 1770.753;  -10.023; 2744.849
501.564; 2028.348;   -8.662; 3148.565
502.151; 2391.563;  -10.531; 3515.999
502.738; 2821.457;  -13.853; 3971.274
503.326; 3393.775;  -10.794; 4403.796
503.913; 3866.102;   -8.663; 5161.749
504.500; 4380.866;  -10.172; 5986.420
505.088; 5260.111;  -13.472; 6381.201
505.675; 5890.466;  -10.924; 6925.547
506.262; 5998.267;   -8.551; 7619.060
506.849; 6642.716;  -10.523; 8733.969
507.436; 7589.775;  -10.834; 9790.121
508.023; 8017.908;   -9.093; 9985.472
508.610; 8403.633;  -10.073;10434.618
509.197; 9506.832;   -9.500;11198.435
509.784;11135.699;  -13.242;12391.194
510.371;12106.700;  -10.964;13603.713
510.958;12489.278;   -9.772;14426.586
511.545;12954.446;   -7.842;15243.775
512.132;13157.023;  -12.184;15945.876
512.719;14469.896;   -9.733;16340.369
513.305;17459.906;   -9.172;18011.766
513.892;19074.664;   -9.581;19754.971
514.479;20225.166;  -10.253;20967.805
515.066;21042.098;   -8.183;22299.793
515.652;22215.721;   -9.253;22908.660
516.239;24065.729;   -9.412;23798.875
516.825;25875.756;  -11.153;25567.275
517.412;26101.656;  -10.263;28154.959
517.998;25725.883;   -8.802;28344.111
518.585;25915.516;  -10.401;27134.219
519.171;25780.627;  -12.744;27268.576
519.758;27413.547;  -11.793;28964.129
520.344;30696.400;   -8.912;30664.494
520.930;34021.105;  -10.901;32550.605
521.516;33853.152;  -12.034;35422.895
522.103;34415.859;  -10.473;38280.004
522.689;36966.074;   -8.311;37835.117
523.275;39874.680;  -10.691;37288.613
523.861;41527.633;  -11.193;37281.395
524.447;38854.344;  -11.484;37846.949
525.033;38686.066;   -7.702;38321.949
525.619;38528.059;  -11.241;38579.285
526.205;38762.164;  -12.152;40622.875
526.791;40016.754;  -11.423;42258.836
527.377;40754.035;   -7.981;42966.902
527.963;40963.016;   -9.450;42018.949
528.549;41281.695;  -11.351;42476.828
529.135;41760.520;  -10.202;41854.852
529.721;43148.793;   -8.672;41237.711
530.306;43308.922;   -9.111;41259.445
530.892;44636.363;  -11.252;41506.047
531.478;47409.082;  -10.432;43559.613
532.063;49588.645;  -10.721;47695.563
532.649;50765.129;   -7.450;50808.324
533.235;52512.395;  -11.811;51787.500
533.820;52113.609;   -9.383;52145.035
534.406;49776.867;   -9.400;51133.488
534.991;48079.723;   -8.861;49996.805
535.576;49483.789;  -10.612;48882.852
536.162;47024.090;   -7.322;46942.285
536.747;46617.754;   -9.360;45711.746
537.333;48464.410;  -10.450;48510.180
537.918;51811.777;  -12.610;50439.891
538.503;52360.270;  -12.132;50863.711
539.088;49692.195;  -10.831;50906.922
539.673;49307.340;  -11.220;52621.965
540.259;53263.539;  -11.481;52368.094
540.844;53182.180;  -11.462;50879.109
541.429;54282.777;   -7.869;52077.777
542.014;52590.469;  -11.859;52716.695
542.599;50615.559;  -11.061;52363.281
543.184;51853.383;  -12.300;53187.137
543.769;53449.141;   -9.369;54697.605
544.354;53866.383;  -12.020;53913.914
544.938;48971.723;  -10.350;49680.164
545.523;45004.348;  -10.841;47386.277
546.108;48593.414;   -8.579;49151.949
546.693;51568.539;   -8.818;51384.637
547.278;52511.094;  -11.331;51853.254
547.862;52064.891;  -10.292;51173.750
548.447;49848.273;   -8.349;51691.395
549.031;49219.277;  -10.838;52456.703
549.616;50616.969;  -11.681;52714.516
550.201;53347.984;  -11.140;52414.598
550.785;51393.438;   -8.649;52355.059
551.370;51581.352;  -11.889;54589.453
551.954;52625.398;  -11.239;58267.348
552.538;54444.574;   -8.850;59062.176
553.123;57014.332;  -10.829;58115.285
553.707;57568.621;   -8.887;56556.285
554.291;54589.766;  -10.430;56201.668
554.876;53289.008;   -9.799;55335.762
555.460;50134.219;  -10.018;54155.703
556.044;48307.504;   -7.307;53721.484
556.628;51737.758;  -12.229;53731.016
557.212;52945.781;   -9.820;54312.531
557.796;51252.035;   -9.109;53797.773
558.380;47413.219;   -9.707;56145.984
558.964;48252.293;  -10.980;57277.930
559.548;51577.039;  -12.010;56459.641
560.132;52444.633;   -7.928;54434.543
560.716;55989.977;  -10.247;54800.617
561.300;57873.063;  -11.250;57606.945
561.884;56011.133;  -10.568;58972.445
562.467;54409.633;   -9.727;57327.570
563.051;50430.301;  -11.847;54962.434
563.635;48930.594;  -10.747;52594.473
564.219;47682.625;  -13.108;50610.410
564.802;45132.262;  -11.417;49551.180
565.386;42314.023;  -10.457;48370.953
565.969;44438.492;   -8.959;48178.871
566.553;45122.086;  -10.328;49957.305
567.136;44617.383;  -10.257;50369.594
567.720;44181.301;  -10.186;49492.004
568.303;43367.648;  -10.027;50616.352
568.887;43739.605;  -10.397;50727.148
569.470;44830.891;   -8.185;51698.379
570.053;43685.965;  -11.596;52122.078
570.637;41866.941;  -11.378;52536.438
571.220;41531.301;   -9.138;51186.098
571.803;40853.867;   -7.675;51032.762
572.386;39551.559;   -8.976;49609.887
572.969;40603.043;  -12.477;48285.926
573.552;40854.051;   -9.767;47624.285
574.135;39653.930;   -8.175;45498.641
574.718;35294.176;  -11.096;41970.434
575.301;33725.688;  -11.966;41447.137
575.884;32157.199;  -12.836;40923.836
576.467;37148.031;   -9.116;45267.723
577.050;39710.594;  -10.536;48175.543
577.633;40104.516;  -11.027;47729.328
578.216;38400.707;   -9.946;47579.793
578.799;37370.176;   -9.645;47820.996
579.381;37313.234;   -9.446;48115.551
579.964;37606.914;  -12.217;47333.766
580.547;38650.055;  -10.586;46668.969
581.129;38144.203;   -8.374;44466.141
581.712;36947.145;  -10.434;44164.922
582.294;36484.625;  -10.896;46477.855
582.877;37284.191;   -8.906;48244.254
583.459;37675.746;   -9.994;47437.895
584.042;37003.707;  -10.084;46943.219
584.624;36206.879;  -13.534;46792.227
585.206;35588.484;  -12.716;46557.250
585.789;35608.480;  -11.614;45793.773
586.371;35767.859;  -10.203;43836.391
586.953;34747.297;  -10.314;42972.492
587.536;32971.320;   -9.776;42487.211
588.118;33016.090;   -9.821;42086.414
588.700;33612.051;  -10.073;43389.930
589.282;34922.773;  -12.395;43646.039
589.864;34218.930;  -11.514;43438.109
590.446;34233.121;  -10.803;43151.926
591.028;35825.980;  -11.043;42781.867
591.610;36355.945;  -13.244;42839.098
592.192;33113.922;  -11.095;42820.402
592.774;30479.814;  -10.823;40724.277
593.356;29786.631;  -11.052;39874.789
593.937;31835.168;  -11.664;39980.648
594.519;34538.422;  -10.454;42069.633
595.101;35186.363;  -10.322;42976.031
595.683;34243.898;  -10.042;44084.441
596.264;32683.063;  -14.334;43478.797
596.846;32367.473;  -10.863;43803.672
597.427;33392.727;   -9.901;42986.934
598.009;33873.570;  -10.911;42832.219
598.591;34012.480;  -10.483;42580.086
599.172;32760.596;   -9.663;43061.805
599.753;31484.973;  -10.631;41691.469
600.335;31321.232;   -9.371;40692.520
600.916;32674.283;  -13.992;39982.422
601.498;34083.152;   -8.352;40318.617
602.079;32316.180;   -8.411;40670.609
602.660;34557.637;  -10.841;41450.898
603.241;35835.602;  -12.963;41137.738
603.823;33682.703;  -11.523;38868.797
604.404;31685.754;  -11.881;38182.785
604.985;32724.109;  -11.721;38078.047
605.566;34258.793;   -9.293;38056.633
606.147;33245.918;  -10.940;37020.418
606.728;31875.787;  -11.840;37883.359
607.309;31239.297;  -11.781;38748.273
607.890;31607.135;  -11.262;38850.230
608.471;30356.914;  -10.111;37457.918
609.051;29775.924;   -7.709;36066.457
609.632;30304.895;  -12.409;35991.074
610.213;29382.453;  -10.811;37402.641
610.794;29344.041;  -11.630;38383.363
611.374;30701.527;   -8.030;40562.387
611.955;32115.090;  -10.809;38533.727
612.536;33708.500;  -10.531;36951.789
613.116;33678.273;  -12.820;37197.891
613.697;32653.529;  -11.419;38411.125
614.277;31856.590;   -9.768;38673.938
614.858;31704.609;  -10.251;37075.863
615.438;28014.426;  -11.981;35092.906
616.019;26065.553;   -8.978;33666.301
616.599;29209.904;  -12.219;34189.023
617.179;32069.338;  -14.170;36952.047
617.760;33851.977;   -9.211;39582.574
618.340;34434.984;   -9.018;38943.977
618.920;32579.900;   -9.249;37594.156
619.500;32014.410;  -12.728;37866.938
620.080;34542.012;  -12.939;37869.043
620.660;33726.004;  -11.586;36868.617
621.241;32441.574;  -11.538;36352.309
621.821;32890.684;  -11.398;35459.520
622.401;33905.270;  -10.179;35207.414
622.980;34348.457;  -11.587;35980.422
623.560;33305.336;  -12.888;37351.328
624.140;30980.088;  -13.149;34388.582
624.720;26274.070;   -9.928;32368.764
625.300;26100.648;  -10.869;32638.629
625.880;30739.051;   -8.617;34599.035
626.459;35103.859;  -12.138;36831.738
627.039;36585.645;  -12.267;38299.098
627.619;36493.160;   -7.476;38289.574
628.198;36897.070;  -11.347;37220.695
628.778;36332.676;  -11.678;37632.563
629.357;34219.211;  -12.438;38003.012
629.937;32008.865;   -9.576;38402.039
630.516;30723.742;  -11.096;37868.801
631.096;30222.271;  -11.828;35760.410
631.675;30950.793;  -11.565;35225.219
632.254;31610.473;  -11.845;35130.289
632.834;32472.119;  -11.545;35794.570
633.413;33107.289;  -10.887;35788.922
633.992;34761.977;  -10.175;34532.863
634.571;33962.957;   -9.704;33590.113
635.151;31276.242;  -10.815;34943.863
635.730;30653.492;  -11.617;35352.523
636.309;30029.535;  -10.836;35366.605
636.888;30824.145;   -9.755;36165.637
637.467;31578.322;  -11.684;37515.902
638.046;33340.816;  -11.987;39288.695
638.625;34413.875;  -10.455;38279.699
639.204;33754.887;  -11.234;37741.598
639.782;30931.352;  -12.023;38364.551
640.361;28447.938;  -11.506;36740.621
640.940;27893.801;  -12.316;34950.082
641.519;29897.086;  -11.616;34137.398
642.097;33961.492;   -9.266;35654.258
642.676;34607.895;  -12.936;35637.957
643.255;33582.574;   -9.966;36567.074
643.833;33903.441;   -8.916;37809.434
644.412;35448.531;  -10.936;37337.293
644.990;37677.008;  -12.176;37018.531
645.569;38057.172;  -12.246;36518.469
646.147;37191.590;  -12.107;36186.430
646.726;36492.012;  -12.937;36267.688
647.304;39183.004;  -12.547;36647.625
647.882;39841.238;  -12.597;39286.742
648.461;37845.012;   -9.427;39157.703
649.039;35813.180;   -8.937;35412.883
649.617;34071.371;  -11.067;34744.918
650.195;34189.746;  -10.657;35403.098
650.773;33684.637;  -10.097;35053.797
651.352;31285.199;  -11.887;33756.816
651.930;26524.955;  -13.557;31868.773
652.508;23552.412;  -11.767;33121.551
653.086;24994.648;  -10.777;33564.793
653.663;28482.275;  -12.067;34054.668
654.241;31476.961;  -14.918;35693.309
654.819;33072.672;  -11.788;36422.906
655.397;32661.098;  -11.268;38213.484
655.975;33502.285;  -11.738;39507.625
656.553;33210.480;  -11.018;39498.223
657.130;32207.826;  -12.848;40395.480
657.708;31624.986;  -10.098;39242.020
658.286;32728.480;  -11.678;38920.020
658.863;35056.008;  -11.498;40202.898
659.441;36774.309;  -11.008;39677.938
660.018;37187.754;  -11.048;40413.355
660.596;36736.270;  -12.058;39931.414
661.173;36356.293;  -14.158;39604.531
661.750;35721.941;  -12.298;39700.070
662.328;34815.316;  -10.699;39292.809
662.905;33158.293;  -12.119;38235.648
663.482;28621.932;  -11.829;36212.305
664.060;27600.811;  -11.009;35944.945
664.637;30161.527;  -10.369;35170.785
665.214;30475.115;  -10.459;34197.523
665.791;29049.684;  -12.599;34549.520
666.368;28838.074;  -12.919;35118.578
666.945;31049.980;  -10.699;36019.418
667.522;32170.730;  -11.359;36048.438
668.099;32403.736;  -13.529;36243.914
668.676;32049.365;  -10.229;35958.875
669.253;31623.664;   -9.279;37384.730
669.830;30405.590;  -11.370;36779.629
670.407;31115.533;  -10.950;35231.289
670.984;32762.633;  -12.850;35544.270
671.560;32598.771;   -8.440;35466.867
672.137;30787.688;  -13.520;34280.863
672.714;29652.926;  -13.620;34632.863
673.290;29945.713;  -10.450;35135.422
673.867;29425.688;  -10.960;36114.480
674.443;27648.988;  -13.300;36152.859
675.020;28131.631;  -12.370;35327.238
675.596;28842.014;  -11.250;35795.176
676.173;29450.266;  -11.080;35430.355
676.749;29575.598;  -13.220;33549.516
677.326;32790.969;  -13.000;32210.012
677.902;34723.879;  -12.701;32068.871
678.478;34347.738;  -12.801;32583.891
679.054;33511.680;   -8.601;32088.928
679.631;34741.813;  -12.631;30978.848
680.207;34621.422;   -9.451;33160.887
680.783;32573.686;  -11.701;35570.363
681.359;32066.002;  -12.701;36125.184
681.935;32096.744;  -13.271;35240.922
682.511;31032.672;  -10.791;34429.961
683.087;31127.268;  -10.791;34463.680
683.663;31184.086;   -8.121;34648.898
684.239;32840.621;  -13.261;34546.457
684.815;32381.189;  -10.581;35586.375
685.390;29587.217;   -9.961;35821.895
685.966;28460.068;  -11.182;35085.871
686.542;27901.248;  -13.512;34198.230
687.118;28053.670;  -11.472;32847.707
687.693;28437.785;  -10.152;32794.027
688.269;29692.268;  -14.442;33072.367
688.844;31145.475;  -11.852;33141.664
689.420;29205.949;  -13.942;33965.742
689.995;27571.113;   -9.702;34655.523
690.571;27777.613;  -11.312;33576.742
691.146;27227.482;  -14.332;32657.219
691.722;28498.430;  -11.192;32526.979
692.297;31158.412;  -10.962;33014.617
692.872;30345.980;  -11.082;34012.254
693.448;29293.605;  -14.732;34237.434
694.023;28373.023;  -12.363;34142.672
694.598;28446.568;  -12.393;34132.031
695.173;27587.561;  -11.023;34205.250
695.748;27023.912;  -12.743;32882.488
696.323;28343.523;  -11.103;32864.906
696.898;29874.193;   -8.123;33170.004
697.473;29950.359;  -12.603;32432.984
698.048;29448.355;  -12.553;31649.303
698.623;30852.164;  -12.573;30778.141
699.198;34229.754;  -12.743;31140.119
699.773;31972.828;  -12.843;31764.299
700.348;30632.197;  -16.683;31780.816
700.922;30951.723;  -11.403;32046.375
701.497;31789.359;  -11.253;32603.574
702.072;32394.680;  -10.044;34799.871
702.646;31884.885;  -13.054;35793.172
703.221;30231.457;  -11.414;35201.590
703.795;30138.193;  -10.644;34764.527
704.370;31706.045;  -13.484;34307.367
704.944;31642.748;  -12.144;33509.887
705.519;30464.145;  -12.024;31388.584
706.093;29131.041;  -11.234;31340.104
706.668;27728.297;   -9.874;32630.281
707.242;27066.145;  -12.404;32728.779
707.816;27261.930;  -10.644;32947.238
708.390;26780.801;  -11.174;33277.855
708.965;27113.719;  -10.324;33834.336
709.539;26441.172;  -12.014;33709.273
710.113;26127.408;  -12.295;33044.313
710.687;26848.211;  -10.965;31953.992
711.261;27360.197;  -13.685;30505.949
711.835;26700.150;  -15.335;30262.369
712.409;25768.799;  -13.785;31254.447
712.983;26822.217;  -10.525;32754.986
713.557;28955.111;  -13.175;34018.824
714.131;30466.041;  -13.245;34579.625
714.704;32046.572;  -13.175;33890.262
715.278;34242.578;  -11.545;33531.102
715.852;33649.195;  -10.975;33601.660
716.425;32612.291;  -10.075;33515.117
716.999;32367.904;  -12.185;33185.555
717.573;32884.918;   -9.685;33905.996
718.146;35142.770;  -10.516;35199.293
718.720;32360.359;  -12.106;35060.551
719.293;30743.896;  -12.386;34973.230
719.867;33739.461;  -12.456;36394.449
720.440;33945.023;  -10.686;36663.008
721.013;33428.367;  -12.596;35102.426
721.587;33326.438;  -13.956;33985.266
722.160;32783.512;   -9.806;33524.965
722.733;32563.729;  -11.676;32987.043
723.306;31933.416;  -14.276;33066.301
723.880;31654.998;  -12.126;33399.500
724.453;32847.445;  -10.156;33468.297
725.026;31741.039;  -12.956;33816.637
725.599;29726.967;  -11.676;32797.996
726.172;28266.678;  -12.337;33187.434
726.745;28715.172;  -11.277;35136.613
727.318;28376.271;  -11.927;35751.730
727.891;27278.598;  -13.607;35890.430
728.463;27410.688;  -11.327;34822.090
729.036;26728.184;  -11.917;32895.086
729.609;27019.551;  -12.697;31823.225
730.182;28050.092;  -11.787;31445.283
730.754;28726.896;  -12.957;32373.223
731.327;29458.367;  -11.017;33676.820
731.900;28152.504;  -12.797;33417.000
732.472;26041.959;  -10.677;31978.498
733.045;25156.916;  -12.797;30368.777
733.617;25900.557;  -13.908;30574.215
734.190;26179.082;  -12.258;31280.975
734.762;27266.750;  -13.438;31674.412
735.334;28178.271;  -11.758;31247.291
735.907;28122.348;  -11.158;29876.211
736.479;28824.740;  -11.258;29808.488
737.051;30642.463;  -10.918;30233.547
737.623;31777.402;  -11.038;31469.086
738.195;31679.740;  -12.188;31784.225
738.768;28515.725;  -11.378;32120.523
739.340;27146.945;  -12.598;32094.342
739.912;28618.637;  -11.568;31312.680
740.484;29187.451;   -9.348;31946.238
741.056;28525.285;  -12.628;32984.059
741.628;28483.344;  -13.349;33897.715
742.199;28732.324;  -11.309;33213.016
742.771;27998.777;  -12.699;31369.113
743.343;29536.695;  -11.919;31865.473
743.915;30018.490;  -11.679;32388.631
744.487;28695.473;  -12.249;31079.568
745.058;26925.740;  -11.119;30570.107
745.630;25448.438;   -9.439;29970.127
746.201;25317.807;  -11.949;29186.766
746.773;25661.236;  -12.639;28805.723
747.344;25368.467;  -11.039;29591.223
747.916;24199.084;  -12.549;31412.201
748.487;22908.049;  -12.659;32194.898
749.059;22194.164;  -13.059;32533.719
749.630;23626.920;  -12.080;32158.518
750.201;23326.479;  -13.100;30855.395
750.773;21960.379;  -15.310;28622.555
751.344;21489.404;  -12.240;28405.732
751.915;21407.369;  -11.960;28461.551
752.486;20958.359;  -13.200;27842.850
753.057;20935.379;  -15.230;27845.008
753.628;21295.971;  -13.130;27728.107
754.199;21506.832;  -12.720;27381.086
754.770;21153.578;  -10.680;25882.203
755.341;21113.072;  -11.010;25886.184
755.912;20555.771;  -12.990;26050.861
756.483;19285.547;  -11.110;26798.779
757.054;18434.199;  -12.190;27048.238
757.625;18626.211;  -13.981;26294.838
758.195;18756.217;  -11.041;26142.076
758.766;19921.506;  -11.861;26392.234
759.337;21030.766;  -11.461;26334.594
759.907;21489.791;  -15.001;27579.652
760.478;21064.574;   -9.681;28352.770
761.048;20375.568;  -12.421;27325.088
761.619;19694.330;  -11.761;26460.428
762.189;18261.623;  -12.391;26029.826
762.760;17675.305;  -10.201;26430.145
763.330;18502.023;  -10.811;26670.902
763.900;21075.064;  -10.261;26603.021
764.471;21415.248;  -13.061;25542.740
765.041;19551.307;  -11.051;24358.459
765.611;19274.854;  -11.032;23991.297
766.181;19115.104;  -10.532;24470.236
766.751;19015.547;  -13.502;24845.975
767.321;19325.148;  -11.392;24533.633
767.891;19546.627;  -11.522;24916.492
768.461;19848.939;  -13.672;24776.771
769.031;19294.662;  -14.652;24757.988
769.601;18384.336;  -10.182;24181.088
770.171;17001.289;  -11.752;23670.387
770.741;15364.734;  -12.272;22960.045
771.311;15167.337;  -13.112;22917.523
771.880;15421.454;  -14.122;23562.941
772.450;16340.544;  -11.782;24216.500
773.020;18327.234;  -12.642;24140.398
773.589;18204.514;  -13.043;24414.857
774.159;16287.742;  -11.783;23858.717
774.729;15145.886;  -13.473;22942.135
775.298;15960.838;  -14.523;22324.033
775.867;16987.092;  -12.013;21140.313
776.437;16261.776;  -12.113;20838.092
777.006;14714.484;  -13.543;20599.510
777.576;13264.274;  -12.523;20508.809
778.145;12653.781;  -12.173;20732.947
778.714;13796.119;  -12.153;21062.465
779.283;14324.691;  -11.833;20949.664
779.853;14937.849;  -13.483;20508.623
780.422;15715.110;  -12.933;20649.082
780.991;15292.723;  -13.173;21527.520
781.560;13657.019;  -10.224;22632.658
782.129;12997.991;  -12.684;23048.277
782.698;14122.316;  -11.284;23438.555
783.267;15342.919;  -11.684;23267.734
783.836;14627.128;  -10.974;22415.133
784.404;13181.588;  -13.534;20443.152
784.973;12935.742;  -16.734;19699.150
785.542;12957.688;  -12.594;19763.828
786.111;12647.866;  -11.644;20341.408
786.679;13074.568;  -11.384;20207.967
787.248;13901.583;  -12.014;19516.465
787.817;12953.898;  -12.804;18900.363
788.385;11839.428;  -11.994;17879.121
788.954;11958.462;  -12.564;17658.301
789.522;13375.607;  -12.225;17788.879
790.090;13759.278;  -13.775;18118.277
790.659;12770.039;  -12.485;18338.736
791.227;12006.753;  -12.295;18508.615
791.795;11999.879;  -13.415;17898.254
792.364;11519.419;  -12.995;17295.133
792.932;11077.708;   -8.365;16822.051
793.500;11261.406;  -11.925;17040.148
794.068;11510.701;  -13.245;17179.787
794.636;11655.900;  -13.815;16664.246
795.204;11109.316;  -13.375;16524.545
795.772;10875.722;  -12.125;17274.564
796.340;11156.917;  -13.855;17891.002
796.908;11521.437;  -13.456;17648.561
797.476;11087.984;  -13.116;17064.080
798.044;10598.667;  -13.226;16672.777
798.612;11253.374;  -11.236;17023.996
799.180;12252.304;  -10.476;16561.615
799.747;12357.513;  -11.746;15962.773
800.315;11414.194;  -12.366;15296.992
800.883;10467.511;  -14.616;14801.771
801.450; 9991.996;  -11.996;14534.430
802.018;10589.959;  -11.206;14173.248
802.585;10408.751;  -12.466;14029.547
803.153; 9445.119;  -12.846;13836.846
803.720; 9052.590;  -12.136;13567.324
804.287; 8849.407;  -10.966;13360.622
804.855; 9043.658;   -9.797;13681.981
805.422; 8958.932;  -13.037;13536.560
805.989; 8578.974;  -12.697;13355.958
806.556; 8745.213;  -11.737;13747.896
807.124; 9124.794;  -11.997;13987.376
807.691; 8731.966;  -13.997;14038.674
808.258; 8447.488;  -10.927;14120.152
808.825; 8878.529;  -13.727;13860.111
809.392; 9382.843;  -11.847;13268.790
809.959; 8853.816;  -14.217;12680.389
810.526; 7995.725;   -8.277;12427.308
811.093; 7757.670;   -9.647;12030.105
811.659; 7663.304;  -10.987;11653.664
812.226; 7255.640;  -13.447;11637.183
812.793; 7333.141;  -14.418;11611.521
813.360; 7844.859;  -13.908;11885.181
813.926; 7981.764;  -12.918;12770.539
814.493; 7761.957;  -14.888;12677.638
815.060; 7787.771;  -12.758;11974.336
815.626; 8071.905;  -13.478;11594.715
816.193; 8133.537;  -13.898;11579.474
816.759; 7972.491;  -13.588;11666.972
817.325; 8028.284;  -12.018;11325.530
817.892; 7737.339;  -14.068;11105.369
818.458; 6891.849;  -13.458;10843.928
819.024; 6452.600;  -11.968;10714.406
819.591; 6103.552;  -11.028;10469.165
820.157; 5874.377;  -12.088;10235.523
820.723; 5823.451;  -12.599;10847.563
821.289; 6040.412;  -10.419;11040.980
821.855; 6725.326;  -10.939;10357.100
822.421; 7335.743;  -12.539; 9978.918
822.987; 7262.265;  -13.259; 9754.177
823.553; 6547.081;  -15.369;10065.755
824.119; 6203.389;  -10.779;10036.294
824.685; 5781.150;   -9.999;10029.192
825.251; 5399.912;  -11.819;10199.230
825.816; 5163.064;  -13.369; 9820.189
826.382; 5279.170;  -12.679; 9297.248
826.948; 5569.945;  -11.199; 9381.347
827.513; 5467.454;  -11.179; 9450.726
828.079; 5345.876;  -13.489; 9472.444
828.645; 5567.369;  -12.500; 9292.643
829.210; 5894.141;  -15.120; 9065.341
829.776; 5828.354;  -12.590; 9132.620
830.341; 5583.904;  -11.540; 9092.878
830.906; 5470.203;  -12.400; 9078.557
831.472; 5313.564;  -12.720; 8534.535
832.037; 4940.843;  -11.490; 8677.874
832.602; 4488.300;  -14.380; 8628.692
833.167; 4568.666;  -12.780; 8879.031
833.733; 4785.589;  -11.100; 9189.790
834.298; 4990.000;  -12.080; 9052.608
834.863; 5023.681;  -13.910; 8895.087
835.428; 4795.045;  -13.470; 8824.266
835.993; 5020.732;  -11.760; 8845.385
836.558; 5431.790;  -12.731; 8888.563
837.123; 5605.158;  -12.431; 8966.582
837.688; 5407.040;  -11.241; 8617.860
838.253; 5073.793;  -13.681; 8590.699
838.817; 4736.252;  -12.531; 8443.797
839.382; 4792.447;  -12.671; 8799.356
839.947; 4790.562;  -11.541; 8810.595
840.511; 4586.292;  -12.021; 8796.394
841.076; 4534.887;  -13.071; 8347.231
841.641; 4493.068;  -11.411; 8224.330
842.205; 4328.952;  -13.671; 8223.349
842.770; 4265.129;  -11.291; 8622.107
843.334; 4358.088;  -12.951; 8410.386
843.898; 4455.870;  -11.221; 8337.465
844.463; 4430.439;  -11.322; 8506.283
845.027; 4239.394;  -11.412; 8280.962
845.591; 3939.023;  -11.512; 8231.141
846.156; 3960.205;  -14.042; 7969.179
846.720; 4155.982;  -12.152; 7768.278
847.284; 4206.281;  -10.922; 7630.957
847.848; 4010.726;  -10.962; 7472.395
848.412; 3711.125;  -14.612; 7437.394
848.976; 3654.535;  -11.492; 7674.592
849.540; 3688.270;   -9.172; 7836.011
850.104; 3973.998;  -11.232; 7913.669
850.668; 4360.832;  -15.182; 7694.508
851.232; 4142.744;  -15.332; 7756.887
851.796; 3815.439;  -13.703; 7926.545
852.359; 3825.747;  -11.113; 7827.844
852.923; 3834.068;  -11.843; 7641.163
853.487; 3743.551;  -11.173; 7342.501
854.050; 3577.556;  -13.443; 7042.820
854.614; 3419.762;  -13.823; 7151.338
855.177; 3400.998;  -16.393; 7105.077
855.741; 3510.826;  -11.693; 6989.675
856.304; 3553.867;  -10.843; 6596.634
856.868; 3479.883;  -13.783; 6356.272
857.431; 3289.687;  -11.953; 6468.571
857.995; 3153.542;  -13.683; 6373.210
858.558; 3166.401;  -11.433; 6324.448
859.121; 3157.596;  -12.493; 6408.327
859.684; 3142.954;  -12.384; 6347.886
860.247; 3130.676;  -14.774; 6321.264
860.810; 3007.130;  -13.154; 6301.903
861.374; 2870.587;  -11.264; 6607.881
861.937; 2803.168;  -15.424; 6408.200
862.500; 2824.142;  -12.854; 6572.639
863.062; 2858.921;  -12.344; 6387.297
863.625; 2854.018;  -13.314; 6190.836
864.188; 2715.700;  -14.724; 5807.254
864.751; 2632.460;  -13.464; 5682.413
865.314; 2625.455;  -11.684; 5547.492
865.876; 2706.343;  -11.104; 5500.150
866.439; 2847.517;  -12.344; 5415.909
867.002; 2860.458;  -13.494; 5501.567
867.564; 2850.475;  -10.935; 5413.946
868.127; 2710.260;  -12.665; 5160.325
868.689; 2500.984;  -14.515; 5133.183
869.252; 2498.242;  -13.425; 5252.382
869.814; 2550.124;  -11.595; 5297.141
870.377; 2585.726;  -12.175; 5390.919
870.939; 2485.798;  -10.265; 5599.898
871.501; 2386.163;  -12.375; 5248.336
872.063; 2359.303;  -14.355; 4854.235
872.626; 2410.336;  -14.435; 4817.074
873.188; 2332.669;  -12.415; 4987.732
873.750; 2283.409;  -14.555; 4868.651
874.312; 2299.888;  -11.185; 4779.330
874.874; 2261.212;  -12.715; 4866.348
875.436; 2116.676;  -13.196; 4718.887
875.998; 2001.534;  -11.426; 4660.005
876.560; 1913.261;   -9.786; 4462.964
877.122; 1880.284;  -12.796; 4145.042
877.683; 1827.952;  -13.226; 4056.481
878.245; 1743.714;  -12.036; 3950.740
878.807; 1669.861;  -11.536; 4058.958
879.369; 1646.881;  -10.806; 3954.677
879.930; 1734.029;  -13.946; 3941.495
880.492; 1855.798;  -11.876; 4067.014
881.053; 1794.897;  -13.216; 3859.633
881.615; 1665.790;  -12.226; 3776.071
882.176; 1590.907;  -12.946; 3734.750
882.738; 1573.068;  -10.736; 3678.489
883.299; 1517.880;  -12.057; 3405.407
883.860; 1409.230;  -12.677; 3351.106
884.422; 1340.202;  -14.097; 3394.044
884.983; 1282.255;  -13.667; 3166.443
885.544; 1218.161;  -10.717; 3189.802
886.105; 1161.486;  -14.357; 3160.360
886.666; 1099.624;  -14.287; 3093.059
887.227; 1039.667;  -14.297; 2941.957
887.788;  998.561;  -13.137; 2974.836
888.349;  940.491;  -14.637; 2721.214
888.910;  873.992;  -12.247; 2696.493
889.471;  872.227;  -10.577; 2560.172
890.032;  877.703;  -12.937; 2558.190
890.593;  867.815;  -12.487; 2567.669
891.153;  842.013;  -11.898; 2460.307
891.714;  803.606;  -14.278; 2372.046
892.275;  777.652;  -13.308; 2309.505
892.835;  733.772;  -12.058; 2382.543
893.396;  650.473;  -15.268; 2295.502
893.956;  597.020;  -13.278; 2162.420
894.517;  578.417;  -11.968; 2125.439
895.077;  581.439;  -12.798; 2086.978
895.638;  565.195;  -11.908; 2126.316
896.198;  545.726;  -13.288; 1838.275
896.758;  521.041;  -12.198; 1892.813
897.319;  491.536;  -13.048; 1792.232
897.879;  461.520;  -13.718; 1762.751
898.439;  426.828;  -14.138; 1661.149
898.999;  393.643;  -13.659; 1781.468
899.559;  375.825;  -14.699; 1703.347
900.119;  359.950;  -14.339; 1537.525
900.679;  336.486;  -11.789; 1638.384
901.239;  306.954;  -13.629; 1527.902
901.799;  288.851;  -13.679; 1456.441
902.359;  277.682;  -13.679; 1357.140
902.919;  271.785;  -14.159; 1331.118
903.479;  260.973;  -13.419; 1317.257
904.038;  246.134;  -14.899; 1262.595
904.598;  231.532;  -14.339; 1152.034
905.158;  223.458;  -13.959; 1240.893
905.717;  218.094;  -12.749; 1233.691
906.277;  213.366;  -11.889; 1217.330
906.836;  207.859;  -12.870; 1222.408
907.396;  203.643;  -11.790; 1193.047
907.955;  196.760;  -13.750; 1182.526
908.515;  187.382;  -14.760; 1099.364
909.074;  181.111;  -12.540; 1092.863
909.633;  177.558;  -12.120; 1069.121
910.192;  172.872;  -12.550; 1196.460
910.752;  166.333;  -12.760; 1029.960
911.311;  162.795;  -14.750; 1009.780
911.870;  161.083;  -13.860;  971.460
912.429;  161.522;  -13.480; 1094.080
912.988;  160.685;  -12.370; 1081.060
913.547;  156.540;  -14.670;  940.380
914.106;  155.665;  -12.800;  999.420
914.665;  155.906;  -11.370;  984.020
915.224;  152.607;  -11.430; 1035.760
915.782;  148.690;  -12.260;  922.560
916.341;  148.786;  -12.540; 1049.840
916.900;  146.045;  -12.540;  925.260
917.458;  143.344;  -13.480;  884.220
918.017;  142.956;  -12.470;  942.600
918.576;  143.212;  -13.450;  904.440
919.134;  141.783;  -12.890;  837.980
919.693;  140.663;  -15.480;  893.060
920.251;  138.516;  -14.420;  876.500
920.809;  138.269;  -12.170;  839.580
921.368;  137.571;  -13.650;  885.360
921.926;  135.174;  -12.750;  842.940
922.484;  134.076;  -14.150;  903.360
923.042;  135.490;  -15.100;  880.340
923.601;  137.478;  -10.990;  998.680
924.159;  135.712;  -12.470;  935.560
924.717;  135.532;  -15.640;  841.080
925.275;  138.215;  -12.380;  903.240
925.833;  138.192;  -12.710;  779.320
926.391;  139.312;  -11.200;  938.380
926.949;  140.104;  -16.000;  857.680
927.506;  140.110;  -12.260;  903.500
928.064;  142.062;  -11.300;  877.580
928.622;  140.953;  -13.750;  880.100
929.180;  140.957;  -15.290;  814.180
929.737;  141.285;  -14.500;  808.540
930.295;  143.971;  -10.630;  928.480
930.853;  146.016;  -14.590;  849.100
931.410;  145.622;  -14.450;  821.120
931.968;  147.760;  -14.390;  940.660
932.525;  150.677;  -13.050;  909.380
933.082;  152.703;  -15.620;  811.440
933.640;  160.269;  -15.650;  925.900
934.197;  164.163;  -13.610;  886.360
934.754;  168.382;  -13.320;  897.780
935.312;  166.472;  -13.370;  863.340
935.869;  168.309;  -12.780; 1012.980
936.426;  168.595;  -14.480;  872.800
936.983;  172.499;  -13.180;  889.020
937.540;  171.740;  -15.710;  838.280
938.097;  172.301;  -14.980;  940.120
938.654;  172.599;  -13.060;  898.860
939.211;  171.108;  -12.760;  952.480
939.768;  170.571;  -16.230;  915.420
940.324;  174.951;  -10.940;  904.200
940.881;  181.828;  -12.570;  878.500
941.438;  186.818;  -13.650; 1021.200
941.995;  183.396;  -13.300;  992.560
942.551;  181.115;  -15.800;  875.620
943.108;  181.316;  -14.180;  937.920
943.664;  175.338;  -13.890;  869.340
944.221;  174.438;  -12.640; 1088.140
944.777;  172.492;  -14.700;  869.680
945.334;  173.122;  -13.010;  884.840
945.890;  173.666;  -13.480;  946.480
946.446;  170.745;  -14.920;  947.020
947.003;  171.862;  -13.860;  964.940
947.559;  173.434;  -12.000; 1063.040
948.115;  172.075;  -10.510; 1026.540
948.671;  169.714;  -12.760;  967.300
949.227;  165.908;  -15.390;  859.560
949.783;  163.738;  -15.570;  858.900
950.339;  165.279;  -12.800;  991.000
950.895;  161.933;  -13.780; 1023.840
951.451;  158.935;  -13.810;  925.280
952.007;  158.471;  -12.390;  998.540
952.563;  156.989;  -11.980;  937.780
953.118;  152.677;  -14.070;  904.940
953.674;  150.616;  -14.140;  935.780
954.230;  151.854;  -12.680;  949.640
954.785;  153.362;  -12.770;  936.640
955.341;  151.873;  -11.450;  998.160
955.897;  146.755;  -15.350;  834.660
956.452;  146.850;  -14.200;  953.840
957.008;  145.773;  -10.820; 1083.640
957.563;  142.601;  -13.200; 1009.540
958.118;  137.495;  -14.460;  877.700
958.674;  138.458;  -13.840;  946.780
959.229;  139.403;  -10.670; 1013.980
959.784;  140.075;  -17.040;  832.400
960.339;  143.517;  -12.970; 1001.280
960.894;  143.423;  -12.700;  963.760
961.449;  141.781;  -13.790;  859.960
962.004;  147.264;  -11.760; 1212.840
962.559;  145.960;  -14.840;  860.140
963.114;  146.670;  -14.530;  742.480
963.669;  148.502;  -12.780;  915.500
964.224;  147.583;  -14.330;  874.340
964.779;  143.717;  -14.380;  828.420
965.334;  138.663;  -12.460; 1017.860
965.888;  133.244;  -13.490;  875.360
966.443;  133.534;  -14.140;  972.380
966.998;  130.694;  -16.240;  819.460
967.552;  127.910;  -12.730;  908.380
968.107;  124.546;  -14.510;  868.300
968.661;  124.983;  -11.850;  922.440
969.216;  122.669;  -14.370;  856.280
969.770;  122.817;  -13.010;  917.200
970.324;  122.054;  -12.460;  923.140
970.879;  121.682;  -11.580;  947.180
971.433;  120.523;  -13.130;  952.720
971.987;  118.629;  -12.360;  895.340
972.541;  118.972;  -14.330;  917.100
973.095;  119.989;  -13.310; 1009.460
973.649;  116.755;  -15.830;  809.480
974.203;  118.990;  -15.830;  829.040
974.757;  122.316;  -13.480;  855.220
975.311;  120.970;  -13.720;  872.600
975.865;  116.277;  -15.780;  881.820
976.419;  113.166;  -14.290;  857.400
976.973;  112.532;  -13.210;  849.620
977.526;  110.904;  -12.300;  949.920
978.080;  106.398;  -14.840;  796.780
978.634;  107.712;  -13.100;  921.320
979.187;  104.444;  -12.300;  905.400
979.741;  101.551;  -12.020; 1018.380
980.294;   95.315;  -14.590;  789.160
980.848;   92.804;  -14.390;  717.220
981.401;   93.834;  -14.280;  816.540
981.955;   93.574;  -11.920;  844.300
982.508;   90.612;  -15.790;  746.340
983.061;   91.736;  -12.070;  915.260
983.615;   89.529;  -13.260;  798.800
984.168;   85.940;  -15.540;  770.080
984.721;   85.517;  -13.230;  880.760
985.274;   84.655;  -11.820;  867.500
985.827;   82.617;  -13.510;  834.220
986.380;   78.615;  -14.840;  721.340
986.933;   79.278;  -13.970;  864.800
987.486;   78.984;  -12.450;  861.920
988.039;   76.684;  -11.170;  863.100
988.591;   74.293;  -13.070;  893.260
989.144;   69.649;  -15.530;  737.260
989.697;   68.984;  -14.300;  758.740
990.250;   69.493;  -13.310;  858.100
990.802;   67.339;  -14.490;  755.860
991.355;   67.929;  -12.980;  974.880
991.907;   66.734;  -13.715;  864.320
992.460;   65.540;  -14.450;  753.760
993.012;   64.413;  -12.590;  749.540
993.565;   62.266;  -15.180;  711.360
994.117;   64.896;  -11.630;  950.780
994.669;   60.549;  -13.760;  701.320
995.221;   59.647;  -12.710;  791.920
995.774;   58.778;  -14.620;  787.580
996.326;   57.577;  -13.150;  740.220
996.878;   59.026;  -12.880;  838.420
997.430;   56.001;  -14.580;  699.860
997.982;   55.256;  -14.030;  750.140
998.534;   55.949;  -12.190;  739.060
999.086;   54.488;  -12.990;  738.220
999.638;   53.426;  -13.180;  661.380
1000.190;   52.072;  -14.970;  699.320
1000.741;   51.780;  -12.200;  742.700
1001.293;   52.538;  -13.400;  686.020
1001.845;   50.903;  -14.490;  676.640
1002.396;   51.205;  -15.280;  743.400
1002.948;   51.515;  -12.380;  737.400
1003.500;   50.660;  -13.260;  723.780
1004.051;   51.240;  -13.730;  907.580
1004.603;   49.856;  -12.300;  791.820
1005.154;   45.987;  -15.330;  608.980
1005.705;   45.585;  -12.800;  723.960
1006.257;   45.197;  -13.900;  707.220
1006.808;   43.637;  -14.430;  685.460
1007.359;   43.658;  -12.010;  763.240
1007.910;   42.431;  -12.690;  646.640
1008.461;   41.347;  -13.610;  732.940
1009.013;   39.594;  -14.990;  588.340
1009.564;   41.582;  -11.860;  793.520
1010.115;   39.552;  -12.640;  597.040
1010.665;   39.406;  -14.570;  602.160
1011.216;   39.426;  -15.190;  667.920
1011.767;   39.263;  -13.470;  697.920
1012.318;   39.708;  -13.760;  736.980
1012.869;   38.429;  -15.950;  679.000
1013.419;   36.687;  -15.880;  603.120
1013.970;   37.844;  -14.540;  666.640
1014.521;   37.634;  -13.220;  620.620
1015.071;   38.522;  -15.020;  670.380
1015.622;   35.754;  -17.510;  635.460
1016.172;   36.328;  -14.130;  596.820
1016.723;   35.950;  -14.220;  614.380
1017.273;   35.744;  -15.370;  604.160
1017.823;   36.180;  -15.290;  650.340
1018.374;   35.952;  -13.420;  611.760
1018.924;   35.575;  -11.740;  716.880
1019.474;   35.706;  -12.250;  718.880
1020.024;   34.119;  -15.850;  657.580
1020.574;   35.129;  -13.280;  726.160
1021.124;   35.623;  -13.560;  673.580
1021.674;   33.384;  -13.790;  559.120
1022.224;   33.932;  -14.610;  708.940
1022.774;   33.685;  -13.100;  668.820
1023.324;   35.213;  -11.470;  753.520
1023.874;   36.226;  -11.990;  875.760
1024.423;   32.763;  -14.550;  613.700
1024.973;   32.800;  -14.440;  610.760
1025.523;   31.837;  -13.250;  620.960
1026.072;   31.899;  -15.200;  606.420
1026.622;   31.762;  -14.590;  675.740
1027.172;   33.042;  -11.080;  715.660
1027.721;   31.513;  -14.010;  601.220
1028.270;   32.165;  -13.690;  663.400
1028.820;   31.105;  -15.380;  638.080
1029.369;   30.995;  -14.980;  612.700
1029.918;   31.511;  -13.100;  649.840
1030.468;   30.459;  -13.680;  564.780
1031.017;   30.132;  -13.770;  634.800
1031.566;   29.085;  -14.100;  608.900
1032.115;   31.048;  -11.770;  694.500
1032.664;   29.573;  -14.940;  596.480
1033.213;   29.572;  -13.370;  735.420
1033.762;   28.986;  -13.660;  635.620
1034.311;   29.014;  -13.650;  677.220
1034.860;   29.423;  -13.820;  691.000
1035.408;   29.028;  -12.860;  722.720
1035.957;   29.677;  -13.060;  719.540
1036.506;   27.221;  -14.510;  530.800
1037.055;   30.328;  -13.470;  844.320
1037.603;   27.542;  -14.800;  664.000
1038.152;   26.369;  -14.190;  534.760
1038.700;   27.605;  -11.810;  585.740
1039.249;   27.344;  -12.850;  681.220
1039.797;   27.287;  -14.610;  633.360
1040.345;   26.800;  -15.220;  705.420
1040.894;   26.984;  -13.480;  625.300
1041.442;   26.619;  -13.310;  632.200
1041.990;   24.971;  -14.510;  559.160
1042.538;   24.937;  -15.700;  536.180
1043.087;   25.394;  -13.910;  570.860
1043.635;   26.593;  -13.620;  670.500
1044.183;   25.390;  -14.230;  586.400
1044.731;   25.432;  -13.730;  576.000
1045.279;   24.976;  -13.970;  674.920
1045.827;   27.443;  -10.750;  892.400
1046.374;   23.416;  -15.230;  515.420
1046.922;   23.608;  -15.390;  590.580
1047.470;   25.375;  -12.320;  691.300
1048.018;   25.000;  -13.230;  647.960
1048.565;   25.017;  -13.390;  708.600
1049.113;   23.479;  -15.030;  557.000
1049.660;   24.420;  -12.540;  629.660
1050.208;   24.743;  -15.040;  675.640
1050.755;   23.438;  -14.680;  606.580
1051.303;   23.251;  -13.610;  686.820
1051.850;   23.981;  -14.340;  635.120
1052.397;   21.244;  -16.330;  473.960
1052.945;   21.417;  -15.710;  617.760
1053.492;   23.613;  -12.320;  741.840
1054.039;   24.134;  -13.730;  720.180
1054.586;   22.270;  -16.140;  557.240
1055.133;   22.886;  -14.020;  693.140
1055.680;   23.051;  -13.430;  646.620
1056.227;   21.826;  -14.570;  542.780
1056.774;   23.787;  -14.400;  794.980
1057.321;   20.588;  -14.230;  523.260
1057.868;   21.788;  -14.220;  651.320
1058.415;   21.683;  -14.060;  651.980
1058.961;   21.883;  -14.640;  678.940
1059.508;   21.039;  -13.970;  643.820
1060.055;   20.197;  -15.100;  581.780
1060.601;   21.448;  -12.180;  624.300
1061.148;   20.817;  -15.010;  616.820
1061.694;   19.709;  -14.750;  592.580
1062.241;   19.599;  -14.130;  596.320
1062.787;   20.890;  -14.770;  663.140
1063.334;   22.522;  -13.130;  808.560
1063.880;   20.207;  -14.420;  668.360
1064.426;   20.509;  -13.130;  706.820
1064.972;   19.115;  -13.960;  601.340
1065.518;   18.395;  -13.680;  566.640
1066.065;   19.783;  -15.720;  624.460
1066.611;   17.966;  -13.970;  598.800
1067.157;   19.590;  -13.920;  641.860
1067.703;   19.752;  -14.760;  668.480
1068.249;   18.769;  -14.490;  605.220
1068.794;   18.510;  -14.740;  626.880
1069.340;   18.156;  -13.220;  578.960
1069.886;   18.613;  -14.930;  590.700
1070.432;   16.521;  -14.700;  541.720
1070.977;   17.500;  -14.470;  601.080
1071.523;   18.386;  -14.330;  573.060
1072.068;   18.267;  -14.960;  582.000
1072.614;   17.164;  -16.220;  527.760
1073.160;   17.803;  -11.280;  687.040
1073.705;   16.665;  -15.990;  572.520
1074.250;   17.172;  -16.550;  559.900
1074.796;   17.398;  -14.600;  655.160
1075.341;   17.424;  -13.440;  664.100
1075.886;   17.475;  -14.450;  594.240
1076.431;   17.226;  -13.160;  649.880
1076.976;   15.988;  -14.710;  639.220
1077.521;   15.825;  -14.000;  583.080
1078.067;   15.667;  -14.470;  579.400
1078.612;   16.482;  -14.530;  661.620
1079.156;   15.568;  -15.660;  601.540
1079.701;   16.370;  -16.120;  693.260
1080.246;   17.202;  -12.960;  696.300
1080.791;   16.457;  -13.700;  625.020
1081.336;   15.803;  -15.540;  659.320
1081.880;   15.613;  -14.640;  649.680
1082.425;   14.778;  -14.220;  573.480
1082.970;   17.273;  -11.890;  717.040
1083.514;   15.170;  -13.820;  597.000
1084.059;   14.525;  -14.280;  586.720
1084.603;   14.151;  -12.890;  565.840
1085.147;   14.830;  -13.590;  645.220
1085.692;   14.947;  -14.050;  716.800
1086.236;   13.739;  -14.990;  503.140
1086.780;   15.828;  -12.640;  751.440
1087.325;   15.120;  -15.550;  654.620
1087.869;   14.212;  -14.980;  610.700
1088.413;   14.417;  -13.440;  705.040
1088.957;   13.509;  -12.170;  543.400
1089.501;   15.991;  -12.730;  766.640
1090.045;   14.084;  -14.650;  726.480
1090.589;   11.917;  -14.500;  569.920
1091.133;   14.346;  -12.320;  673.340
1091.676;   14.104;  -16.130;  591.940
1092.220;   12.439;  -13.930;  600.920
1092.764;   13.892;  -12.820;  706.960
1093.307;   13.752;  -11.700;  673.780
1093.851;   12.392;  -15.600;  556.540
1094.395;   13.102;  -13.920;  683.140
1094.938;   12.707;  -16.090;  632.520
1095.482;   13.054;  -13.820;  559.800
1096.025;   13.546;  -12.720;  710.880
1096.568;   13.203;  -12.100;  779.280
1097.112;   10.539;  -15.450;  508.180
1097.655;   12.683;  -14.310;  603.000
1098.198;   10.781;  -14.740;  600.180
1098.741;   10.943;  -15.550;  612.860
1099.285;   12.148;  -12.600;  657.300
1099.828;   10.438;  -15.050;  439.400
1100.371;   11.450;  -14.800;  608.160
1100.914;   11.656;  -16.480;  682.660
1101.457;   11.650;  -12.990;  679.900
1101.999;   10.580;  -14.110;  584.680
1102.542;   12.157;  -11.450;  641.440
1103.085;   10.404;  -13.350;  658.500
1103.628;   11.289;  -13.200;  762.060
1104.170;   10.935;  -12.310;  588.280
1104.713;   10.335;  -14.320;  646.700
1105.256;    9.409;  -16.110;  557.440
1105.798;    9.060;  -15.910;  499.980
1106.341;   11.775;  -12.200;  728.900
1106.883;    9.376;  -14.910;  521.340
1107.425;   10.029;  -14.960;  668.180
1107.968;    9.675;  -13.440;  612.380
1108.510;   10.745;  -14.010;  684.960
1109.052;    9.064;  -15.430;  612.620
1109.594;    9.216;  -15.290;  554.440
1110.136;    9.421;  -13.360;  643.220
1110.679;    8.915;  -13.820;  633.080
1111.221;    9.884;  -13.690;  604.460
1111.763;    8.080;  -14.890;  559.220
1112.304;    8.626;  -14.550;  547.140
1112.846;    9.957;  -12.760;  666.240
1113.388;   12.321;  -10.780;  942.180
1113.930;    8.503;  -12.690;  694.200
1114.472;    7.964;  -15.730;  606.540
1115.013;    7.545;  -14.620;  551.280
1115.555;    7.568;  -14.950;  587.100
1116.097;    7.265;  -16.460;  579.480
1116.638;    8.058;  -13.730;  684.600
1117.180;    9.037;  -13.810;  667.740
1117.721;    7.910;  -13.280;  568.580
1118.262;    8.435;  -15.080;  677.960
1118.804;    8.090;  -14.040;  637.340
1119.345;    7.644;  -15.430;  578.400
1119.886;    8.493;  -15.240;  704.040
1120.427;    6.730;  -15.820;  589.020
1120.969;    6.544;  -14.550;  597.920
1121.510;    7.274;  -14.030;  563.060
1122.051;    7.869;  -11.990;  723.580
1122.592;    6.502;  -16.490;  655.420
1123.133;    5.739;  -15.580;  547.940
1123.673;    7.954;  -12.850;  706.480
1124.214;    7.052;  -13.630;  612.460
1124.755;    7.210;  -14.830;  639.460
1125.296;    6.850;  -13.110;  627.320
1125.836;    7.628;  -11.320;  691.500
1126.377;    6.602;  -14.330;  599.660
1126.918;    6.735;  -12.800;  614.980
1127.458;    5.728;  -13.580;  622.220
1127.999;    7.248;  -10.330;  656.980
1128.539;    6.640;  -13.390;  694.240
1129.079;    6.044;  -16.420;  632.720
1129.620;    4.946;  -15.700;  558.100
1130.160;    5.156;  -14.790;  539.480
1130.700;    6.336;  -12.910;  640.840
1131.240;    5.441;  -15.610;  643.700
1131.781;    5.553;  -12.920;  619.680
1132.321;    5.625;  -15.300;  599.120
1132.861;    4.747;  -14.760;  564.200
1133.401;    3.990;  -15.470;  593.940
1133.941;    5.524;  -13.710;  626.280
1134.481;    4.863;  -11.820;  597.580
1135.020;    4.398;  -14.810;  609.160
1135.560;    5.126;  -13.660;  674.940
1136.100;    3.649;  -13.940;  501.160
1136.640;    4.046;  -15.410;  510.480
1137.179;    3.911;  -16.920;  537.960
1137.719;    3.719;  -16.430;  605.400
1138.258;    4.295;  -16.300;  587.360
1138.798;    5.870;  -13.710;  663.780
1139.337;    3.381;  -13.840;  482.840
1139.877;    4.107;  -16.140;  642.360
1140.416;    6.260;  -11.410;  878.060
1140.955;    3.423;  -12.820;  535.380
1141.494;    4.021;  -12.310;  669.280
1142.034;    2.495;  -16.280;  583.520
1142.573;    3.583;  -13.090;  646.280
1143.112;    3.018;  -13.770;  553.480
1143.651;    3.396;  -15.830;  536.480
1144.190;    3.516;  -15.010;  691.640
1144.729;    3.205;  -13.650;  607.420
1145.267;    3.926;  -13.670;  584.900
1145.806;    4.378;  -13.630;  637.040
1146.345;    2.703;  -14.160;  635.020
1146.884;    2.943;  -11.180;  622.500
1147.422;    2.931;  -15.890;  533.060
1147.961;    4.977;  -12.760;  708.460
1148.500;    2.803;  -15.220;  669.720
1149.038;    3.870;  -13.720;  632.500
1149.577;    3.389;  -13.250;  698.640
1150.115;    0.684;  -16.790;  452.280
1150.653;    1.872;  -15.810;  607.340
1151.192;    3.037;  -14.730;  552.920
1151.730;    2.937;  -13.660;  652.560
1152.268;    2.073;  -15.120;  589.520
1152.806;    1.677;  -15.580;  571.180
1153.344;    1.303;  -16.210;  577.640
1153.882;    2.546;  -12.810;  600.060
1154.421;    0.861;  -14.150;  470.620
1154.958;    1.558;  -15.360;  595.240
1155.496;    2.866;  -14.710;  645.280
1156.034;    2.846;  -13.640;  721.880
1156.572;    3.118;  -13.740;  667.060
1157.110;    0.225;  -16.960;  473.940
1157.647;    2.077;  -11.940;  676.960
1158.185;    1.533;  -14.090;  564.320
1158.723;    0.164;  -13.610;  509.200
1159.260;    0.868;  -14.760;  701.700
1159.798;    2.073;  -13.700;  658.160
1160.335;    1.549;  -13.820;  631.820

