
Integration time [ms]:   3.276
Averaging Nr. [scans]: 1000
Smoothing Nr. [pixels]: 0
Data measured with spectrometer [name]: 7414430SP
Wave   ;Sample   ;Dark     ;Reference
[nm]   ;[counts] ;[counts] ;[counts] 

288.544;  150.440;    7.793;  793.890
289.143;  154.137;    7.462;  681.602
289.742;  155.251;    8.602;  828.814
290.341;  139.776;    1.321;  789.841
290.940;  130.085;   -0.709;  730.702
291.538;  129.698;    0.881;  881.108
292.137;  130.118;    0.122;  792.581
292.736;  134.671;   -1.929;  975.101
293.335;  132.124;   -8.229;  735.086
293.934;  131.816;   -5.279;  781.677
294.532;  129.913;   -1.369; 1031.958
295.131;  116.006;   -7.641;  834.394
295.730;  116.248;   -8.420;  809.588
296.328;  115.058;   -5.611;  783.442
296.927;  116.299;   -5.781;  779.652
297.525;  116.882;   -6.361;  781.236
298.124;  107.514;  -11.382;  654.009
298.722;  111.281;   -7.641;  761.933
299.321;  109.046;   -6.811;  708.597
299.919;  106.906;   -6.991;  751.918
300.518;  104.147;  -10.362;  689.338
301.116;  105.065;   -9.581;  691.381
301.715;  105.616;   -4.891;  730.222
302.313;  103.690;   -8.801;  704.943
302.911;  100.375;   -8.522;  733.830
303.509;  105.784;   -6.171;  925.627
304.108;  102.687;   -7.311;  760.383
304.706;  101.774;   -8.321;  801.664
305.304;   96.636;  -10.222;  796.707
305.902;  100.826;   -6.021;  784.484
306.500;   97.008;   -4.971;  728.200
307.098;   95.821;   -7.061;  746.560
307.696;   93.719;   -8.801;  780.432
308.294;   94.889;   -6.411;  731.359
308.892;   97.002;   -2.901;  759.769
309.490;   92.131;   -5.041;  712.161
310.088;   91.101;   -5.002;  788.444
310.686;   94.833;   -2.041;  821.749
311.284;   90.414;   -2.351;  766.040
311.882;   87.174;   -4.422;  731.225
312.480;   85.673;   -4.192;  697.167
313.078;   87.077;   -1.172;  808.331
313.675;   87.965;   -2.601;  691.600
314.273;   82.463;   -1.312;  797.837
314.871;   82.139;   -3.942;  589.829
315.468;   80.197;   -2.802;  652.090
316.066;   84.167;   -0.701;  694.427
316.664;   75.624;   -4.362;  656.351
317.261;   79.553;   -2.872;  910.128
317.859;   74.999;   -2.022;  768.735
318.456;   75.903;   -0.531;  830.096
319.054;   71.434;   -3.912;  787.828
319.651;   70.697;   -4.752;  759.928
320.249;   69.973;   -2.602;  810.188
320.846;   67.897;   -0.821;  714.286
321.443;   65.346;   -4.642;  832.135
322.041;   61.749;   -5.002;  812.315
322.638;   59.273;   -3.982;  701.456
323.235;   61.024;   -3.411;  665.683
323.833;   58.366;   -7.361;  740.354
324.430;   53.675;   -8.611;  615.900
325.027;   54.164;   -4.061;  876.855
325.624;   54.564;   -4.031;  644.532
326.221;   50.318;   -7.481;  689.717
326.818;   51.183;   -5.281;  818.332
327.415;   54.173;   -7.460;  748.828
328.012;   53.449;   -5.510;  690.585
328.609;   51.559;   -7.880;  731.389
329.206;   50.190;   -8.331;  778.621
329.803;   50.239;   -5.121;  737.841
330.400;   52.729;   -4.510;  704.260
330.997;   54.150;   -6.441;  817.147
331.594;   53.088;   -8.831;  788.185
332.191;   58.028;   -7.621;  728.722
332.787;   60.694;   -4.591;  844.463
333.384;   59.072;   -7.412;  763.093
333.981;   57.592;   -8.293;  815.687
334.578;   61.779;   -7.052;  708.378
335.174;   63.574;   -3.102;  731.469
335.771;   63.007;   -5.943;  836.456
336.367;   59.971;   -7.393;  710.631
336.964;   63.621;   -4.063;  793.266
337.561;   62.559;   -3.813;  731.112
338.157;   57.111;   -4.654;  911.916
338.754;   55.158;   -7.934;  796.589
339.350;   52.735;   -4.414;  722.493
339.946;   55.825;   -4.664;  773.135
340.543;   47.117;   -6.375;  846.136
341.139;   42.160;   -9.815;  720.836
341.735;   39.517;   -4.526;  772.593
342.332;   38.135;   -4.895;  691.472
342.928;   38.895;   -4.295;  795.394
343.524;   32.807;   -5.476;  761.684
344.120;   28.923;   -5.856;  738.562
344.716;   33.052;   -2.155;  723.717
345.313;   30.260;   -6.275;  795.342
345.909;   24.539;   -8.815;  627.336
346.505;   26.210;   -5.305;  740.247
347.101;   27.622;   -2.674;  827.864
347.697;   27.977;   -4.344;  785.398
348.293;   22.060;   -9.975;  627.244
348.889;   23.382;   -5.774;  745.914
349.485;   22.733;   -5.004;  688.205
350.081;   22.723;   -4.704;  772.592
350.676;   18.429;   -6.635;  691.606
351.272;   22.851;   -4.504;  809.530
351.868;   21.574;   -3.914;  780.497
352.464;   19.604;   -9.044;  723.932
353.059;   15.651;   -8.314;  646.017
353.655;   19.522;   -7.024;  777.063
354.251;   20.598;   -5.343;  759.845
354.846;   14.354;   -8.604;  740.646
355.442;   12.823;   -6.945;  753.071
356.038;   13.856;   -7.564;  751.708
356.633;   14.296;   -5.814;  728.594
357.229;   12.228;   -7.364;  724.757
357.824;   10.838;   -8.024;  703.600
358.420;    9.701;   -9.384;  679.726
359.015;   11.059;   -5.104;  695.357
359.610;   11.255;   -6.854;  763.920
360.206;    5.177;  -10.185;  603.240
360.801;    8.203;   -7.054;  646.503
361.396;   10.787;   -5.034;  725.975
361.992;    5.418;   -8.284;  668.220
362.587;    2.270;   -8.625;  670.160
363.182;    4.888;   -7.674;  689.631
363.777;    6.262;   -5.164;  738.242
364.372;    4.914;   -8.604;  737.314
364.967;    1.934;   -9.055;  680.744
365.563;    5.479;   -6.114;  815.567
366.158;    3.044;   -5.814;  685.161
366.753;    2.830;   -7.854;  649.263
367.348;    1.824;   -7.804;  746.056
367.942;    1.578;   -7.954;  697.298
368.537;    0.817;   -4.984;  754.245
369.132;    1.697;   -8.564;  703.428
369.727;   -3.001;   -8.855;  638.079
370.322;   -1.258;   -6.245;  580.186
370.917;   -2.220;   -6.425;  710.646
371.511;    0.814;   -6.294;  861.834
372.106;   -3.006;   -7.685;  776.964
372.701;   -5.992;   -7.335;  585.988
373.296;    0.013;   -4.564;  863.135
373.890;   -5.693;  -10.235;  647.840
374.485;   -7.552;   -7.885;  691.199
375.079;   -2.858;   -7.324;  738.685
375.674;   -1.658;   -3.494;  812.970
376.268;   -6.065;   -8.525;  691.759
376.863;  -11.588;  -10.086;  580.327
377.457;   -5.995;   -7.025;  662.490
378.052;   -6.352;   -3.585;  764.884
378.646;   -8.956;   -7.595;  741.167
379.240;   -8.868;   -8.335;  721.176
379.835;   -7.114;   -5.785;  636.978
380.429;   -9.459;   -4.335;  562.557
381.023;  -10.310;   -6.805;  779.205
381.617;  -12.468;   -9.195;  680.106
382.212;   -8.512;   -6.905;  685.303
382.806;   -7.811;   -3.745;  760.690
383.400;  -12.521;   -7.745;  672.281
383.994;  -13.043;   -9.765;  664.870
384.588;   -9.726;   -6.564;  697.701
385.182;   -7.583;   -5.344;  726.624
385.776;  -10.136;   -8.514;  706.875
386.370;  -12.840;   -9.555;  681.968
386.964;  -12.138;   -8.715;  684.155
387.558;   -9.251;   -6.174;  598.360
388.152;  -13.780;   -8.725;  681.959
388.745;  -11.495;   -7.965;  814.707
389.339;   -9.841;   -5.924;  747.642
389.933;   -8.593;   -5.524;  695.370
390.527;   -9.930;   -7.114;  859.029
391.120;  -16.619;  -10.725;  595.318
391.714;  -13.480;   -8.035;  711.633
392.308;   -9.923;   -3.574;  780.253
392.901;  -13.822;   -7.245;  642.460
393.495;  -15.932;   -9.285;  595.414
394.089;  -13.448;   -5.895;  760.452
394.682;  -13.966;   -4.295;  697.188
395.275;  -15.208;   -9.875;  719.927
395.869;  -16.177;   -8.485;  667.314
396.462;  -14.671;   -7.455;  616.609
397.056;  -10.098;   -5.424;  776.621
397.649;  -15.470;   -6.605;  731.575
398.242;  -12.485;   -8.224;  712.645
398.836;  -11.856;   -7.474;  766.408
399.429;  -12.975;   -7.094;  631.041
400.022;  -17.185;   -9.475;  665.902
400.615;  -14.095;   -7.145;  805.609
401.208;  -12.258;   -7.174;  691.451
401.802;  -14.359;   -5.515;  699.329
402.395;  -15.100;   -9.875;  683.502
402.988;  -16.151;   -8.845;  696.627
403.581;  -13.467;   -8.874;  646.878
404.174;  -10.642;   -5.324;  686.568
404.767;  -13.534;   -9.575;  638.583
405.360;  -16.032;  -10.965;  621.445
405.953;   -9.990;   -8.764;  759.034
406.545;  -10.034;   -7.514;  725.342
407.138;  -14.693;  -10.025;  618.350
407.731;  -13.370;  -10.034;  613.303
408.324;   -9.663;   -9.374;  660.554
408.917;  -10.321;   -6.534;  681.864
409.509;  -12.100;   -8.004;  740.396
410.102;  -14.593;   -9.875;  643.948
410.695;   -7.547;   -8.604;  665.758
411.287;   -8.727;   -6.794;  599.821
411.880;  -10.724;   -9.334;  585.421
412.472;  -13.285;  -10.254;  613.092
413.065;  -10.444;   -6.714;  629.408
413.657;   -8.740;   -7.234;  576.678
414.250;   -8.140;  -10.544;  646.681
414.842;  -10.102;   -9.744;  676.353
415.434;   -8.146;   -6.994;  570.463
416.027;   -3.275;   -5.893;  652.196
416.619;   -6.333;   -7.264;  713.400
417.211;   -7.002;  -10.374;  599.352
417.804;   -2.135;   -7.993;  628.499
418.396;   -6.592;   -7.234;  607.643
418.988;   -4.646;   -9.443;  659.238
419.580;   -7.280;  -10.724;  568.276
420.172;   -6.119;  -10.323;  536.196
420.764;   -1.944;   -8.793;  672.482
421.356;   -3.072;  -11.143;  636.898
421.948;   -4.155;   -8.293;  677.661
422.540;    1.231;   -7.893;  680.027
423.132;    0.391;   -7.082;  600.641
423.724;   -2.909;   -8.653;  561.267
424.316;   -0.896;  -10.213;  621.345
424.908;    2.559;   -9.762;  591.517
425.500;    3.770;   -5.572;  647.978
426.092;    3.574;   -8.422;  648.268
426.683;    2.601;   -9.283;  684.836
427.275;    5.946;   -7.852;  641.471
427.867;    7.629;   -5.272;  668.948
428.458;    7.791;   -7.682;  732.344
429.050;    5.815;  -10.612;  680.749
429.642;    8.599;   -9.882;  743.124
430.233;    8.699;   -6.962;  569.356
430.825;   10.250;   -6.842;  724.809
431.416;    7.306;   -9.672;  698.241
432.008;   11.015;   -6.552;  651.723
432.599;   11.633;   -6.891;  656.073
433.190;    8.689;  -10.912;  637.670
433.782;    8.032;  -11.172;  590.395
434.373;   15.737;   -6.061;  884.765
434.964;   14.186;   -8.251;  602.920
435.556;   12.103;   -9.722;  634.537
436.147;   14.134;   -9.082;  758.490
436.738;   15.133;   -8.041;  701.099
437.329;   20.359;   -7.341;  721.723
437.920;   13.102;   -8.162;  666.688
438.511;   13.209;  -11.802;  564.526
439.103;   19.368;  -10.191;  623.998
439.694;   21.199;   -7.601;  681.583
440.285;   22.110;   -8.541;  764.432
440.876;   20.873;   -9.751;  845.738
441.466;   19.407;   -9.401;  575.162
442.057;   24.344;   -7.760;  665.814
442.648;   24.199;   -9.971;  746.255
443.239;   21.865;  -11.001;  620.477
443.830;   26.809;   -7.990;  704.958
444.421;   28.519;   -7.910;  655.474
445.011;   25.209;   -8.131;  693.619
445.602;   25.081;   -7.111;  743.126
446.193;   26.388;  -10.920;  488.117
446.783;   31.495;   -6.500;  640.397
447.374;   26.665;   -8.671;  692.759
447.964;   27.913;  -10.781;  713.770
448.555;   34.956;   -9.650;  822.742
449.145;   32.317;   -8.660;  662.853
449.736;   32.567;   -8.990;  803.179
450.326;   33.467;   -9.500;  713.626
450.917;   38.056;   -8.680;  675.324
451.507;   36.807;   -7.520;  600.661
452.097;   37.664;   -8.590;  746.267
452.688;   38.648;  -11.340;  742.160
453.278;   37.375;  -10.100;  566.840
453.868;   42.819;   -6.019;  793.550
454.458;   40.258;   -9.440;  651.141
455.048;   40.558;  -10.560;  711.783
455.639;   41.804;  -11.799;  567.096
456.229;   46.484;   -6.899;  710.694
456.819;   48.086;   -7.389;  751.158
457.409;   47.709;  -11.119;  773.993
457.999;   50.836;   -9.289;  737.505
458.589;   51.081;   -6.139;  686.606
459.179;   50.431;   -8.729;  717.658
459.769;   48.894;   -9.789;  627.099
460.358;   53.749;  -10.259;  797.262
460.948;   53.379;   -7.299;  689.503
461.538;   55.313;  -10.289;  660.677
462.128;   53.108;  -11.269;  664.934
462.717;   60.007;   -9.368;  710.326
463.307;   62.387;   -7.908;  705.846
463.897;   59.104;   -9.599;  656.942
464.486;   57.715;   -9.769;  837.128
465.076;   61.766;   -8.048;  733.776
465.666;   65.906;   -9.358;  652.900
466.255;   63.711;   -7.919;  785.651
466.845;   62.655;  -11.689;  666.749
467.434;   65.839;   -7.818;  725.873
468.023;   66.199;   -7.678;  658.357
468.613;   64.355;  -10.939;  713.946
469.202;   68.741;  -10.118;  646.507
469.791;   72.223;   -9.108;  737.811
470.381;   75.156;   -6.058;  742.813
470.970;   74.826;  -10.428;  711.099
471.559;   73.851;  -10.268;  733.291
472.148;   76.492;   -8.448;  675.737
472.738;   79.270;   -6.917;  765.466
473.327;   79.469;  -11.978;  637.529
473.916;   78.801;  -11.888;  737.446
474.505;   82.711;   -9.437;  751.703
475.094;   85.888;   -6.747;  806.570
475.683;   85.408;   -9.367;  797.699
476.272;   86.583;  -12.637;  730.632
476.861;   88.789;  -10.027;  706.754
477.449;   96.610;   -8.716;  728.487
478.038;   89.934;   -9.577;  692.513
478.627;   90.429;   -9.718;  714.852
479.216;   97.027;   -8.947;  769.441
479.805;  100.794;   -6.256;  783.375
480.393;  100.062;   -7.937; 1008.945
480.982;   99.808;   -7.717;  874.501
481.571;  105.907;   -9.266;  858.333
482.159;  106.182;   -7.636;  705.386
482.748;  106.173;   -9.667;  821.385
483.336;  111.021;  -10.376;  858.209
483.925;  111.349;   -7.147;  774.373
484.513;  118.708;   -7.996;  758.962
485.102;  115.357;  -10.027;  810.965
485.690;  122.984;  -10.446; 1011.050
486.278;  125.134;   -8.446;  979.329
486.867;  126.351;   -6.356;  809.662
487.455;  127.698;   -9.136;  898.229
488.043;  128.665;  -10.646;  748.361
488.631;  136.874;   -7.456; 1005.079
489.220;  142.285;   -6.636;  908.626
489.808;  141.665;  -11.036;  741.415
490.396;  149.651;  -10.246;  914.645
490.984;  155.702;   -8.556;  830.161
491.572;  165.416;   -5.886;  940.315
492.160;  170.506;   -9.486;  919.081
492.748;  181.964;  -10.976;  884.341
493.336;  204.925;   -8.776; 1019.693
493.924;  230.790;   -5.465;  958.077
494.512;  257.227;   -9.986; 1066.638
495.100;  292.126;  -10.636; 1103.280
495.687;  348.277;  -10.885; 1206.373
496.275;  409.822;   -8.126; 1150.796
496.863;  476.988;  -10.586; 1281.171
497.451;  575.335;  -11.926; 1386.805
498.038;  707.311;  -10.885; 1556.729
498.626;  813.286;   -6.315; 1741.407
499.214;  958.915;   -7.326; 2016.609
499.801; 1159.635;  -11.906; 2220.633
500.389; 1389.991;  -10.466; 2312.494
500.976; 1690.928;   -5.236; 2744.849
501.564; 2117.963;   -8.936; 3148.565
502.151; 2480.653;  -13.176; 3515.999
502.738; 2900.909;  -10.646; 3971.274
503.326; 3285.772;   -9.525; 4403.796
503.913; 3679.243;  -10.856; 5161.749
504.500; 4059.343;  -11.586; 5986.420
505.088; 4418.874;  -10.336; 6381.201
505.675; 4961.901;   -6.355; 6925.547
506.262; 5646.958;   -9.046; 7619.060
506.849; 6358.487;  -10.416; 8733.969
507.436; 6875.310;  -10.305; 9790.121
508.023; 7460.390;   -5.496; 9985.472
508.610; 7681.488;   -7.856;10434.618
509.197; 8258.542;  -10.097;11198.435
509.784; 9598.065;  -10.886;12391.194
510.371;10695.381;   -9.315;13603.713
510.958;11365.267;   -9.936;14426.586
511.545;12034.622;   -9.326;15243.775
512.132;12932.079;  -10.075;15945.876
512.719;13572.698;   -7.796;16340.369
513.305;14700.929;  -10.606;18011.766
513.892;15407.680;  -11.486;19754.971
514.479;16551.986;   -9.126;20967.805
515.066;17882.092;   -6.026;22299.793
515.652;19375.396;   -8.466;22908.660
516.239;20694.674;  -10.886;23798.875
516.825;21588.057;  -11.496;25567.275
517.412;22710.762;   -5.796;28154.959
517.998;23486.725;  -10.506;28344.111
518.585;23306.326;  -10.076;27134.219
519.171;23773.322;   -8.315;27268.576
519.758;25709.436;   -8.596;28964.129
520.344;27661.051;   -8.466;30664.494
520.930;27226.982;  -11.006;32550.605
521.516;28467.762;  -10.495;35422.895
522.103;30373.307;   -5.526;38280.004
522.689;31082.135;   -8.746;37835.117
523.275;30404.098;  -11.376;37288.613
523.861;31546.363;  -11.156;37281.395
524.447;33225.328;   -8.135;37846.949
525.033;33035.941;   -7.896;38321.949
525.619;33140.082;  -12.476;38579.285
526.205;34503.035;   -9.516;40622.875
526.791;37176.191;   -6.926;42258.836
527.377;36798.422;   -8.346;42966.902
527.963;37727.980;   -8.717;42018.949
528.549;36734.586;  -11.016;42476.828
529.135;35365.559;   -8.536;41854.852
529.721;34283.934;   -9.666;41237.711
530.306;33170.758;  -10.066;41259.445
530.892;31643.207;  -11.356;41506.047
531.478;31371.260;   -6.596;43559.613
532.063;34608.676;   -8.836;47695.563
532.649;36963.129;  -10.047;50808.324
533.235;38409.793;   -9.746;51787.500
533.820;38503.559;   -6.566;52145.035
534.406;38070.344;  -10.817;51133.488
534.991;35616.719;   -9.416;49996.805
535.576;31950.568;   -9.036;48882.852
536.162;32053.977;   -6.156;46942.285
536.747;35987.512;  -11.607;45711.746
537.333;42917.566;  -11.787;48510.180
537.918;48564.926;  -12.437;50439.891
538.503;49334.219;   -7.196;50863.711
539.088;46918.965;  -10.556;50906.922
539.673;47318.566;   -8.767;52621.965
540.259;47634.844;  -10.026;52368.094
540.844;44797.258;   -7.416;50879.109
541.429;46323.684;   -9.467;52077.777
542.014;48675.406;   -9.527;52716.695
542.599;47762.449;   -9.946;52363.281
543.184;44549.082;   -7.927;53187.137
543.769;45725.270;   -9.297;54697.605
544.354;45721.797;  -10.127;53913.914
544.938;44214.305;   -9.267;49680.164
545.523;45869.625;   -6.506;47386.277
546.108;48509.313;   -9.787;49151.949
546.693;50680.023;  -11.587;51384.637
547.278;50909.727;  -10.986;51853.254
547.862;47613.102;   -8.206;51173.750
548.447;42954.914;  -10.067;51691.395
549.031;42215.348;   -9.637;52456.703
549.616;47052.375;   -9.926;52714.516
550.201;46596.906;   -6.347;52414.598
550.785;47769.719;   -7.917;52355.059
551.370;47094.813;  -10.867;54589.453
551.954;46903.703;   -9.047;58267.348
552.538;47688.219;   -7.827;59062.176
553.123;46118.516;  -10.287;58115.285
553.707;44137.758;  -12.178;56556.285
554.291;45627.172;   -8.717;56201.668
554.876;48438.078;   -7.457;55335.762
555.460;48634.844;  -10.387;54155.703
556.044;48898.086;   -9.618;53721.484
556.628;46562.770;  -11.567;53731.016
557.212;45190.020;   -8.097;54312.531
557.796;44171.199;  -11.077;53797.773
558.380;44266.996;  -11.108;56145.984
558.964;44323.555;   -9.057;57277.930
559.548;44976.984;   -6.977;56459.641
560.132;43167.766;  -11.457;54434.543
560.716;41969.109;  -11.378;54800.617
561.300;43371.680;   -9.577;57606.945
561.884;44355.180;   -7.127;58972.445
562.467;42418.574;   -7.118;57327.570
563.051;41477.977;  -13.358;54962.434
563.635;42751.977;  -10.178;52594.473
564.219;43709.141;   -7.837;50610.410
564.802;44497.246;  -11.398;49551.180
565.386;44068.590;  -12.788;48370.953
565.969;43491.555;   -9.077;48178.871
566.553;42542.574;   -6.207;49957.305
567.136;43288.809;   -8.568;50369.594
567.720;39824.535;  -11.868;49492.004
568.303;37805.281;   -8.268;50616.352
568.887;37900.043;   -8.698;50727.148
569.470;38486.395;   -6.808;51698.379
570.053;37604.285;  -13.188;52122.078
570.637;35102.414;  -12.037;52536.438
571.220;34527.277;   -8.577;51186.098
571.803;35365.965;   -8.498;51032.762
572.386;37940.199;  -10.498;49609.887
572.969;40456.641;   -9.388;48285.926
573.552;38685.031;   -8.338;47624.285
574.135;37121.535;   -8.518;45498.641
574.718;34555.863;  -13.628;41970.434
575.301;33851.160;  -10.893;41447.137
575.884;33146.457;   -8.158;40923.836
576.467;34381.559;  -10.328;45267.723
577.050;36145.125;  -13.058;48175.543
577.633;37048.152;   -9.458;47729.328
578.216;36129.984;   -8.928;47579.793
578.799;35310.980;   -9.358;47820.996
579.381;34225.594;  -11.388;48115.551
579.964;32487.205;  -11.718;47333.766
580.547;34532.656;   -8.588;46668.969
581.129;35368.789;   -8.859;44466.141
581.712;36007.188;  -10.729;44164.922
582.294;36358.082;  -11.118;46477.855
582.877;36484.977;   -5.218;48244.254
583.459;34694.242;   -8.679;47437.895
584.042;32597.939;  -10.709;46943.219
584.624;32680.350;  -11.669;46792.227
585.206;32487.578;   -8.218;46557.250
585.789;32980.063;  -10.569;45793.773
586.371;35248.840;  -11.859;43836.391
586.953;35701.117;  -10.719;42972.492
587.536;36676.531;   -7.198;42487.211
588.118;36871.105;   -8.720;42086.414
588.700;33102.750;  -10.439;43389.930
589.282;32276.223;   -9.198;43646.039
589.864;33336.270;   -9.199;43438.109
590.446;34423.375;  -11.319;43151.926
591.028;34036.629;  -11.159;42781.867
591.610;32897.160;  -11.779;42839.098
592.192;30440.426;   -7.668;42820.402
592.774;29261.598;  -11.949;40724.277
593.356;28278.680;  -12.129;39874.789
593.937;27353.582;  -10.669;39980.648
594.519;29695.047;   -6.509;42069.633
595.101;31779.051;  -10.849;42976.031
595.683;31747.258;  -11.679;44084.441
596.264;32643.852;   -9.049;43478.797
596.846;32334.766;   -8.849;43803.672
597.427;32004.990;   -9.570;42986.934
598.009;33170.734;  -12.620;42832.219
598.591;33388.000;  -10.039;42580.086
599.172;32865.641;  -10.369;43061.805
599.753;32855.867;   -9.140;41691.469
600.335;34114.813;  -11.430;40692.520
600.916;32512.488;   -9.939;39982.422
601.498;30609.176;   -8.479;40318.617
602.079;29123.238;  -10.920;40670.609
602.660;29013.547;  -11.480;41450.898
603.241;30691.742;  -11.699;41137.738
603.823;29424.561;   -9.579;38868.797
604.404;29000.475;  -10.620;38182.785
604.985;30586.713;  -10.450;38078.047
605.566;30316.717;   -9.129;38056.633
606.147;30327.648;   -7.510;37020.418
606.728;31955.201;  -10.660;37883.359
607.309;30689.412;  -11.740;38748.273
607.890;30552.627;   -9.759;38850.230
608.471;30115.025;   -8.250;37457.918
609.051;29257.816;   -9.240;36066.457
609.632;27953.578;  -12.120;35991.074
610.213;28364.537;   -9.110;37402.641
610.794;29165.861;   -8.030;38383.363
611.374;29216.516;   -8.110;40562.387
611.955;29965.223;  -13.560;38533.727
612.536;31129.477;  -11.400;36951.789
613.116;30761.816;   -8.070;37197.891
613.697;30890.506;  -10.830;38411.125
614.277;29282.191;  -11.641;38673.938
614.858;30292.395;  -13.310;37075.863
615.438;29830.838;   -7.460;35092.906
616.019;27391.414;   -7.601;33666.301
616.599;27559.078;  -12.020;34189.023
617.179;29190.385;  -11.780;36952.047
617.760;30302.803;   -8.570;39582.574
618.340;31017.367;  -11.471;38943.977
618.920;31838.801;  -11.170;37594.156
619.500;32029.367;  -11.071;37866.938
620.080;31385.918;   -7.750;37869.043
620.660;32477.748;  -12.711;36868.617
621.241;34245.836;  -10.211;36352.309
621.821;34636.063;  -10.961;35459.520
622.401;33318.160;   -7.720;35207.414
622.980;32183.514;   -8.981;35980.422
623.560;30816.115;   -9.331;37351.328
624.140;29626.189;   -9.850;34388.582
624.720;24711.863;   -7.451;32368.764
625.300;21262.162;   -9.070;32638.629
625.880;24656.449;  -12.601;34599.035
626.459;28908.666;  -11.751;36831.738
627.039;31879.916;   -9.281;38299.098
627.619;31715.244;   -8.801;38289.574
628.198;30067.627;  -12.071;37220.695
628.778;29044.189;   -9.461;37632.563
629.357;29711.322;   -8.491;38003.012
629.937;30001.256;   -9.721;38402.039
630.516;29434.109;   -9.951;37868.801
631.096;28991.691;  -11.731;35760.410
631.675;31558.572;   -8.572;35225.219
632.254;36809.746;  -11.282;35130.289
632.834;36385.363;  -13.322;35794.570
633.413;34587.605;  -10.301;35788.922
633.992;31692.426;   -8.582;34532.863
634.571;32120.643;   -8.352;33590.113
635.151;34649.004;  -11.912;34943.863
635.730;33284.355;  -10.511;35352.523
636.309;30323.789;   -7.731;35366.605
636.888;28040.262;   -9.952;36165.637
637.467;28623.752;  -11.672;37515.902
638.046;29985.848;   -8.901;39288.695
638.625;32818.160;   -7.912;38279.699
639.204;32699.805;  -10.022;37741.598
639.782;31733.311;  -12.252;38364.551
640.361;27807.879;  -10.041;36740.621
640.940;25079.119;  -11.161;34950.082
641.519;25743.449;   -9.701;34137.398
642.097;28725.314;  -11.271;35654.258
642.676;31580.531;   -8.651;35637.957
643.255;32610.744;   -8.711;36567.074
643.833;31836.166;   -9.581;37809.434
644.412;32012.719;  -13.711;37337.293
644.990;31126.355;  -11.811;37018.531
645.569;31120.578;   -9.411;36518.469
646.147;30495.721;  -10.291;36186.430
646.726;30309.514;  -12.401;36267.688
647.304;31117.289;  -10.411;36647.625
647.882;32592.449;   -9.651;39286.742
648.461;34342.434;   -9.631;39157.703
649.039;32581.670;  -11.881;35412.883
649.617;31519.535;   -9.661;34744.918
650.195;30801.752;   -9.301;35403.098
650.773;29412.045;  -10.511;35053.797
651.352;27385.371;  -11.521;33756.816
651.930;25251.387;  -12.211;31868.773
652.508;23514.438;   -9.171;33121.551
653.086;27291.650;   -9.371;33564.793
653.663;30268.818;  -13.161;34054.668
654.241;29055.080;  -13.031;35693.309
654.819;30411.063;   -9.371;36422.906
655.397;30283.955;  -10.511;38213.484
655.975;29923.695;  -10.371;39507.625
656.553;29427.215;  -10.051;39498.223
657.130;27922.912;  -10.061;40395.480
657.708;27500.633;   -9.561;39242.020
658.286;27716.264;  -11.511;38920.020
658.863;28740.041;  -10.261;40202.898
659.441;31972.574;   -7.531;39677.938
660.018;31976.260;   -9.501;40413.355
660.596;30575.754;  -13.301;39931.414
661.173;32178.619;  -11.211;39604.531
661.750;32715.701;   -9.951;39700.070
662.328;31885.844;   -9.390;39292.809
662.905;30887.090;  -11.330;38235.648
663.482;26406.031;   -9.050;36212.305
664.060;24602.334;   -8.240;35944.945
664.637;27503.406;  -10.050;35170.785
665.214;28845.098;  -11.760;34197.523
665.791;30167.287;  -10.530;34549.520
666.368;29188.521;   -9.690;35118.578
666.945;29940.422;   -9.320;36019.418
667.522;31520.553;  -11.860;36048.438
668.099;31291.291;  -10.770;36243.914
668.676;30017.027;   -6.260;35958.875
669.253;28699.932;   -7.000;37384.730
669.830;28895.496;  -10.190;36779.629
670.407;28813.492;   -9.550;35231.289
670.984;29120.434;   -9.260;35544.270
671.560;29954.766;   -9.280;35466.867
672.137;28986.689;  -11.810;34280.863
672.714;29858.148;  -11.490;34632.863
673.290;30943.506;   -7.740;35135.422
673.867;31074.793;  -10.660;36114.480
674.443;30634.939;  -12.230;36152.859
675.020;28621.422;  -10.450;35327.238
675.596;29695.666;   -9.260;35795.176
676.173;30389.953;  -10.780;35430.355
676.749;30085.234;  -13.690;33549.516
677.326;29913.277;  -11.980;32210.012
677.902;29870.490;   -8.630;32068.871
678.478;29310.930;  -10.730;32583.891
679.054;28544.986;  -10.520;32088.928
679.631;28812.410;  -11.920;30978.848
680.207;30010.979;   -7.490;33160.887
680.783;31473.775;   -9.860;35570.363
681.359;30642.809;  -13.380;36125.184
681.935;30478.109;  -12.480;35240.922
682.511;30324.650;   -7.900;34429.961
683.087;30701.795;   -7.710;34463.680
683.663;30067.496;  -11.480;34648.898
684.239;28575.818;  -14.090;34546.457
684.815;27888.059;   -7.560;35586.375
685.390;28033.068;   -9.910;35821.895
685.966;28499.992;  -11.159;35085.871
686.542;31036.156;  -11.169;34198.230
687.118;33311.367;   -5.959;32847.707
687.693;33589.207;  -10.329;32794.027
688.269;33234.215;  -12.059;33072.367
688.844;31551.500;  -10.909;33141.664
689.420;29674.604;   -8.019;33965.742
689.995;27846.127;   -8.399;34655.523
690.571;26404.557;  -10.949;33576.742
691.146;26421.221;   -9.619;32657.219
691.722;26138.660;   -8.999;32526.979
692.297;25955.684;  -11.589;33014.617
692.872;27463.773;  -11.739;34012.254
693.448;27165.082;  -11.059;34237.434
694.023;26178.779;  -10.139;34142.672
694.598;28234.209;   -9.029;34132.031
695.173;28873.674;  -13.319;34205.250
695.748;27877.424;  -10.169;32882.488
696.323;27587.014;   -8.339;32864.906
696.898;27815.365;   -8.169;33170.004
697.473;27993.334;  -12.309;32432.984
698.048;27361.182;  -10.989;31649.303
698.623;27203.590;   -9.329;30778.141
699.198;28776.932;   -9.849;31140.119
699.773;29992.889;  -12.329;31764.299
700.348;28774.475;  -10.389;31780.816
700.922;28709.932;   -9.269;32046.375
701.497;29596.908;   -9.329;32603.574
702.072;29752.598;  -10.789;34799.871
702.646;28431.752;  -10.839;35793.172
703.221;26558.492;   -9.099;35201.590
703.795;28341.891;  -10.939;34764.527
704.370;28678.994;  -12.859;34307.367
704.944;28979.537;  -11.559;33509.887
705.519;29659.939;   -7.939;31388.584
706.093;30970.523;  -10.499;31340.104
706.668;31186.471;  -11.289;32630.281
707.242;30032.678;  -11.509;32728.779
707.816;28790.461;   -9.639;32947.238
708.390;27265.416;  -11.429;33277.855
708.965;27956.676;  -11.869;33834.336
709.539;28458.244;  -11.689;33709.273
710.113;28476.980;  -10.478;33044.313
710.687;27615.012;  -10.228;31953.992
711.261;25921.002;  -13.698;30505.949
711.835;25799.500;  -13.378;30262.369
712.409;26377.256;   -9.698;31254.447
712.983;28317.111;  -11.898;32754.986
713.557;29519.189;  -15.138;34018.824
714.131;29387.047;  -14.098;34579.625
714.704;28429.396;   -9.958;33890.262
715.278;25887.746;  -10.028;33531.102
715.852;24900.668;  -11.148;33601.660
716.425;26122.289;   -9.068;33515.117
716.999;27211.635;  -10.038;33185.555
717.573;28068.801;   -9.798;33905.996
718.146;29081.650;  -12.378;35199.293
718.720;29017.090;  -11.918;35060.551
719.293;28938.186;   -8.088;34973.230
719.867;31953.104;  -10.888;36394.449
720.440;31577.010;  -11.938;36663.008
721.013;29591.609;  -12.818;35102.426
721.587;28006.555;  -10.298;33985.266
722.160;26861.045;  -10.048;33524.965
722.733;25911.785;  -12.108;32987.043
723.306;26331.209;  -10.818;33066.301
723.880;28301.840;   -8.908;33399.500
724.453;30140.762;   -9.878;33468.297
725.026;29353.738;  -11.188;33816.637
725.599;26808.867;  -11.678;32797.996
726.172;27177.420;   -9.618;33187.434
726.745;28426.988;   -8.258;35136.613
727.318;29715.869;  -12.978;35751.730
727.891;30148.865;  -12.148;35890.430
728.463;29519.932;   -8.968;34822.090
729.036;28206.883;  -10.188;32895.086
729.609;28703.078;  -11.788;31823.225
730.182;25907.674;  -11.788;31445.283
730.754;23522.629;  -10.268;32373.223
731.327;23970.975;   -9.998;33676.820
731.900;24481.115;  -12.228;33417.000
732.472;25122.646;  -13.848;31978.498
733.045;26354.984;   -8.698;30368.777
733.617;26402.518;  -10.607;30574.215
734.190;26776.033;  -11.507;31280.975
734.762;24399.541;  -13.647;31674.412
735.334;22685.717;   -9.767;31247.291
735.907;23215.939;   -9.897;29876.211
736.479;23338.279;  -11.637;29808.488
737.051;22873.074;   -9.567;30233.547
737.623;23398.371;   -8.187;31469.086
738.195;23980.525;  -11.187;31784.225
738.768;26277.230;  -12.337;32120.523
739.340;26930.115;  -12.227;32094.342
739.912;25882.531;  -11.057;31312.680
740.484;24481.234;  -10.207;31946.238
741.056;22939.369;  -10.047;32984.059
741.628;23993.115;  -13.627;33897.715
742.199;26022.541;   -7.177;33213.016
742.771;24836.283;  -10.797;31369.113
743.343;22801.127;  -11.997;31865.473
743.915;21870.088;  -12.867;32388.631
744.487;21898.465;   -7.617;31079.568
745.058;21927.023;   -9.557;30570.107
745.630;22583.484;   -9.877;29970.127
746.201;23782.580;  -14.177;29186.766
746.773;24363.268;   -9.237;28805.723
747.344;24200.959;   -9.847;29591.223
747.916;22508.449;  -11.657;31412.201
748.487;22664.643;  -10.587;32194.898
749.059;24075.316;   -8.707;32533.719
749.630;24932.311;  -10.537;32158.518
750.201;24120.488;  -11.687;30855.395
750.773;22330.010;  -11.647;28622.555
751.344;21995.807;   -7.147;28405.732
751.915;22826.150;   -9.757;28461.551
752.486;22725.354;  -12.427;27842.850
753.057;20820.330;  -12.227;27845.008
753.628;19721.342;  -10.417;27728.107
754.199;20652.725;  -11.767;27381.086
754.770;21705.018;  -11.187;25882.203
755.341;21984.309;  -10.507;25886.184
755.912;22000.717;   -9.387;26050.861
756.483;21395.508;  -10.647;26798.779
757.054;19535.279;  -11.837;27048.238
757.625;18111.059;  -12.716;26294.838
758.195;18035.395;   -9.666;26142.076
758.766;17833.621;   -8.656;26392.234
759.337;18422.107;  -12.856;26334.594
759.907;19964.328;  -13.366;27579.652
760.478;20863.768;   -8.576;28352.770
761.048;20202.525;  -10.526;27325.088
761.619;19175.396;  -11.116;26460.428
762.189;19331.594;  -12.136;26029.826
762.760;20572.254;   -9.456;26430.145
763.330;21637.793;   -7.136;26670.902
763.900;21066.107;  -11.786;26603.021
764.471;18525.922;  -11.546;25542.740
765.041;17073.822;   -8.096;24358.459
765.611;16923.844;   -8.876;23991.297
766.181;17274.611;  -12.196;24470.236
766.751;18460.023;  -11.636;24845.975
767.321;18253.270;  -10.156;24533.633
767.891;16117.628;  -11.766;24916.492
768.461;15493.389;  -14.936;24776.771
769.031;16027.085;  -12.356;24757.988
769.601;17693.021;   -7.526;24181.088
770.171;17731.479;  -10.766;23670.387
770.741;16906.949;  -13.176;22960.045
771.311;17032.848;  -10.616;22917.523
771.880;17548.109;   -9.576;23562.941
772.450;17477.516;  -10.336;24216.500
773.020;17531.039;  -13.516;24140.398
773.589;16773.475;  -13.466;24414.857
774.159;16136.121;   -8.686;23858.717
774.729;15748.058;   -9.476;22942.135
775.298;15304.312;  -13.666;22324.033
775.867;14845.158;  -11.716;21140.313
776.437;15003.980;   -9.906;20838.092
777.006;14757.767;  -12.166;20599.510
777.576;14398.366;  -12.356;20508.809
778.145;14415.711;  -11.646;20732.947
778.714;14509.798;   -8.226;21062.465
779.283;13973.780;   -9.556;20949.664
779.853;13459.621;  -14.116;20508.623
780.422;13843.736;  -11.506;20649.082
780.991;13455.527;   -9.556;21527.520
781.560;12189.014;   -9.095;22632.658
782.129;11970.956;  -12.135;23048.277
782.698;11963.428;  -10.865;23438.555
783.267;11571.457;   -9.335;23267.734
783.836;11511.295;  -11.045;22415.133
784.404;12534.416;  -13.865;20443.152
784.973;13204.212;  -13.095;19699.150
785.542;13287.369;  -11.575;19763.828
786.111;13142.861;   -9.705;20341.408
786.679;12611.475;  -12.105;20207.967
787.248;12308.305;  -12.455;19516.465
787.817;12104.061;  -11.535;18900.363
788.385;11743.406;   -9.765;17879.121
788.954;11169.477;  -14.005;17658.301
789.522;10521.854;  -11.955;17788.879
790.090;10899.775;  -10.135;18118.277
790.659;11485.556;  -10.975;18338.736
791.227;11112.023;  -13.375;18508.615
791.795;11497.102;  -12.375;17898.254
792.364;11758.077;  -10.725;17295.133
792.932;12031.481;   -9.715;16822.051
793.500;12356.986;  -12.675;17040.148
794.068;12651.694;  -13.495;17179.787
794.636;12805.017;  -10.885;16664.246
795.204;12193.170;  -11.045;16524.545
795.772;12176.313;  -13.175;17274.564
796.340;11650.920;  -12.445;17891.002
796.908;11408.304;   -9.735;17648.561
797.476;11314.483;   -9.815;17064.080
798.044;10943.021;  -13.985;16672.777
798.612;10198.562;  -13.115;17023.996
799.180; 9785.444;  -10.185;16561.615
799.747; 9606.021;   -9.055;15962.773
800.315; 9317.745;  -12.385;15296.992
800.883; 9093.688;  -15.035;14801.771
801.450; 9241.900;  -10.365;14534.430
802.018; 9337.688;   -9.855;14173.248
802.585; 9353.424;  -11.905;14029.547
803.153; 9393.616;  -11.585;13836.846
803.720; 9238.516;   -9.095;13567.324
804.287; 8697.940;   -9.135;13360.622
804.855; 8186.900;  -11.604;13681.981
805.422; 8080.324;  -11.794;13536.560
805.989; 8145.708;  -10.734;13355.958
806.556; 8389.516;  -10.444;13747.896
807.124; 8693.430;  -12.764;13987.376
807.691; 8647.639;  -12.964;14038.674
808.258; 8437.027;  -11.134;14120.152
808.825; 8039.872;   -9.854;13860.111
809.392; 8133.153;  -10.504;13268.790
809.959; 7713.602;  -13.054;12680.389
810.526; 7258.476;   -8.294;12427.308
811.093; 7242.625;   -8.394;12030.105
811.659; 7826.809;  -12.304;11653.664
812.226; 8385.678;  -13.944;11637.183
812.793; 8122.142;  -10.484;11611.521
813.360; 7448.786;  -10.144;11885.181
813.926; 7116.077;  -11.684;12770.539
814.493; 6930.701;  -13.644;12677.638
815.060; 6566.358;   -9.724;11974.336
815.626; 6533.251;   -9.854;11594.715
816.193; 6902.687;  -13.254;11579.474
816.759; 6936.590;  -13.204;11666.972
817.325; 6990.884;   -9.434;11325.530
817.892; 7377.245;  -10.134;11105.369
818.458; 7817.237;  -13.474;10843.928
819.024; 7422.656;  -11.854;10714.406
819.591; 7093.207;  -10.244;10469.165
820.157; 6911.612;  -10.704;10235.523
820.723; 6434.142;  -12.324;10847.563
821.289; 6142.958;   -9.444;11040.980
821.855; 6051.734;   -8.374;10357.100
822.421; 5966.412;  -10.234; 9978.918
822.987; 5893.743;  -13.294; 9754.177
823.553; 5537.288;  -10.884;10065.755
824.119; 5355.889;   -8.884;10036.294
824.685; 5489.545;   -6.784;10029.192
825.251; 5624.359;  -12.004;10199.230
825.816; 5580.354;  -11.474; 9820.189
826.382; 5297.185;   -9.174; 9297.248
826.948; 5465.277;   -9.214; 9381.347
827.513; 5865.122;  -10.774; 9450.726
828.079; 5722.155;  -11.924; 9472.444
828.645; 5132.083;  -10.543; 9292.643
829.210; 4974.361;  -10.533; 9065.341
829.776; 4946.850;  -10.753; 9132.620
830.341; 4817.695;  -10.173; 9092.878
830.906; 4969.730;  -10.743; 9078.557
831.472; 5309.545;  -11.113; 8534.535
832.037; 5095.917;  -10.603; 8677.874
832.602; 4571.277;  -13.323; 8628.692
833.167; 4317.577;  -10.823; 8879.031
833.733; 4262.986;  -10.113; 9189.790
834.298; 4392.165;  -13.583; 9052.608
834.863; 4512.759;  -12.703; 8895.087
835.428; 4525.014;  -10.523; 8824.266
835.993; 4391.301;   -6.963; 8845.385
836.558; 4243.999;  -10.763; 8888.563
837.123; 4336.880;   -9.903; 8966.582
837.688; 4584.814;   -9.913; 8617.860
838.253; 4820.667;  -10.283; 8590.699
838.817; 4986.105;  -12.963; 8443.797
839.382; 4903.711;  -14.243; 8799.356
839.947; 4604.566;  -10.733; 8810.595
840.511; 4298.655;   -9.383; 8796.394
841.076; 3918.543;  -12.563; 8347.231
841.641; 3986.563;  -12.953; 8224.330
842.205; 4097.379;   -7.043; 8223.349
842.770; 4143.444;   -8.163; 8622.107
843.334; 4296.668;  -12.503; 8410.386
843.898; 4275.545;  -11.693; 8337.465
844.463; 4270.964;  -10.203; 8506.283
845.027; 4053.868;   -9.533; 8280.962
845.591; 3870.780;  -13.443; 8231.141
846.156; 3858.189;  -13.143; 7969.179
846.720; 3769.379;   -9.433; 7768.278
847.284; 3670.556;  -11.033; 7630.957
847.848; 3526.626;  -10.403; 7472.395
848.412; 3412.861;  -11.553; 7437.394
848.976; 3435.029;   -8.393; 7674.592
849.540; 3357.087;   -8.713; 7836.011
850.104; 3419.547;  -12.463; 7913.669
850.668; 3772.187;  -12.973; 7694.508
851.232; 3926.418;  -10.793; 7756.887
851.796; 3787.955;  -10.662; 7926.545
852.359; 3466.909;  -13.082; 7827.844
852.923; 3295.628;  -12.192; 7641.163
853.487; 3161.627;  -11.912; 7342.501
854.050; 3134.698;  -10.892; 7042.820
854.614; 3248.879;  -13.992; 7151.338
855.177; 3348.458;  -11.732; 7105.077
855.741; 3388.076;   -8.962; 6989.675
856.304; 3301.261;   -9.442; 6596.634
856.868; 3283.077;  -14.192; 6356.272
857.431; 3425.178;  -12.702; 6468.571
857.995; 3578.291;   -9.942; 6373.210
858.558; 3617.460;   -9.112; 6324.448
859.121; 3349.041;  -12.932; 6408.327
859.684; 3169.565;  -13.442; 6347.886
860.247; 3259.714;  -10.632; 6321.264
860.810; 3270.426;  -11.272; 6301.903
861.374; 3014.032;   -9.832; 6607.881
861.937; 2749.956;  -11.762; 6408.200
862.500; 2751.146;   -9.722; 6572.639
863.062; 2901.218;  -10.512; 6387.297
863.625; 3032.532;  -11.232; 6190.836
864.188; 3195.556;  -14.112; 5807.254
864.751; 3294.311;  -11.302; 5682.413
865.314; 3213.617;  -10.112; 5547.492
865.876; 2997.628;  -12.182; 5500.150
866.439; 2975.436;  -10.722; 5415.909
867.002; 2934.645;   -9.252; 5501.567
867.564; 2743.082;   -9.572; 5413.946
868.127; 2520.242;  -13.142; 5160.325
868.689; 2391.521;  -12.902; 5133.183
869.252; 2273.259;   -9.732; 5252.382
869.814; 2163.229;   -9.432; 5297.141
870.377; 2174.353;  -11.552; 5390.919
870.939; 2247.717;   -9.052; 5599.898
871.501; 2325.950;  -10.982; 5248.336
872.063; 2336.864;  -12.292; 4854.235
872.626; 2279.584;  -14.912; 4817.074
873.188; 2276.333;  -13.112; 4987.732
873.750; 2255.546;  -13.442; 4868.651
874.312; 2185.198;   -9.402; 4779.330
874.874; 2106.331;  -11.062; 4866.348
875.436; 2020.063;  -13.931; 4718.887
875.998; 2011.904;   -9.561; 4660.005
876.560; 2035.851;  -11.321; 4462.964
877.122; 1975.308;  -12.221; 4145.042
877.683; 1875.330;  -12.191; 4056.481
878.245; 1795.496;  -12.101; 3950.740
878.807; 1837.452;   -8.971; 4058.958
879.369; 1863.761;  -12.071; 3954.677
879.930; 1770.882;  -14.621; 3941.495
880.492; 1706.155;  -10.311; 4067.014
881.053; 1671.805;  -10.901; 3859.633
881.615; 1561.949;  -14.411; 3776.071
882.176; 1466.478;  -13.761; 3734.750
882.738; 1422.427;   -9.181; 3678.489
883.299; 1400.838;  -11.791; 3405.407
883.860; 1390.158;  -13.121; 3351.106
884.422; 1370.348;  -11.211; 3394.044
884.983; 1328.162;  -10.091; 3166.443
885.544; 1283.778;   -8.461; 3189.802
886.105; 1252.017;  -12.361; 3160.360
886.666; 1175.737;  -14.141; 3093.059
887.227;  992.977;  -11.361; 2941.957
887.788;  760.752;  -11.401; 2974.836
888.349;  589.492;  -13.791; 2721.214
888.910;  541.855;  -13.191; 2696.493
889.471;  551.481;   -9.881; 2560.172
890.032;  568.866;   -9.881; 2558.190
890.593;  582.576;  -10.371; 2567.669
891.153;  597.958;  -13.301; 2460.307
891.714;  592.287;  -11.431; 2372.046
892.275;  586.495;  -11.291; 2309.505
892.835;  572.750;  -11.471; 2382.543
893.396;  539.044;  -11.541; 2295.502
893.956;  498.582;  -11.181; 2162.420
894.517;  469.605;  -11.741; 2125.439
895.077;  468.974;  -11.671; 2086.978
895.638;  475.946;  -11.311; 2126.316
896.198;  455.636;   -9.831; 1838.275
896.758;  419.529;   -8.421; 1892.813
897.319;  391.743;  -12.351; 1792.232
897.879;  378.941;  -13.511; 1762.751
898.439;  356.369;  -12.001; 1661.149
898.999;  334.660;  -10.180; 1781.468
899.559;  324.459;  -12.030; 1703.347
900.119;  321.237;  -15.710; 1537.525
900.679;  319.654;   -8.900; 1638.384
901.239;  306.580;   -8.340; 1527.902
901.799;  297.375;  -13.910; 1456.441
902.359;  292.643;  -13.460; 1357.140
902.919;  284.532;  -11.490; 1331.118
903.479;  274.397;  -12.110; 1317.257
904.038;  254.684;  -11.720; 1262.595
904.598;  241.315;  -13.610; 1152.034
905.158;  237.276;  -11.040; 1240.893
905.717;  230.562;  -10.900; 1233.691
906.277;  218.931;  -15.080; 1217.330
906.836;  209.039;  -13.380; 1222.408
907.396;  200.235;  -10.780; 1193.047
907.955;  193.813;   -8.500; 1182.526
908.515;  189.337;  -12.760; 1099.364
909.074;  184.540;  -11.900; 1092.863
909.633;  179.377;   -8.950; 1069.121
910.192;  175.373;   -8.770; 1196.460
910.752;  169.970;  -12.390; 1029.960
911.311;  165.737;  -13.680; 1009.780
911.870;  164.379;  -12.370;  971.460
912.429;  165.759;  -10.900; 1094.080
912.988;  163.841;  -11.690; 1081.060
913.547;  159.736;  -13.240;  940.380
914.106;  154.369;  -11.990;  999.420
914.665;  152.460;   -9.990;  984.020
915.224;  151.376;  -12.880; 1035.760
915.782;  151.614;  -12.350;  922.560
916.341;  151.857;   -9.110; 1049.840
916.900;  146.804;   -9.270;  925.260
917.458;  144.494;  -13.240;  884.220
918.017;  144.357;  -13.550;  942.600
918.576;  144.303;  -12.320;  904.440
919.134;  143.010;  -11.490;  837.980
919.693;  141.436;  -13.670;  893.060
920.251;  138.850;  -15.470;  876.500
920.809;  138.774;  -11.290;  839.580
921.368;  138.323;  -10.210;  885.360
921.926;  137.117;  -12.140;  842.940
922.484;  136.197;  -13.080;  903.360
923.042;  134.996;  -11.720;  880.340
923.601;  138.541;   -7.480;  998.680
924.159;  136.608;  -11.570;  935.560
924.717;  133.719;  -13.840;  841.080
925.275;  132.462;  -10.640;  903.240
925.833;  132.929;  -11.540;  779.320
926.391;  133.614;  -12.960;  938.380
926.949;  132.197;  -14.130;  857.680
927.506;  132.168;  -11.750;  903.500
928.064;  132.473;  -10.250;  877.580
928.622;  131.569;  -13.030;  880.100
929.180;  131.088;  -13.400;  814.180
929.737;  131.750;  -10.700;  808.540
930.295;  136.092;  -10.070;  928.480
930.853;  137.719;  -11.960;  849.100
931.410;  137.672;  -13.120;  821.120
931.968;  138.149;  -10.770;  940.660
932.525;  137.509;  -10.680;  909.380
933.082;  138.138;  -13.130;  811.440
933.640;  139.219;  -13.210;  925.900
934.197;  137.293;  -11.060;  886.360
934.754;  139.315;   -9.580;  897.780
935.312;  141.161;  -14.000;  863.340
935.869;  145.044;  -10.710; 1012.980
936.426;  145.397;   -9.860;  872.800
936.983;  146.987;   -9.710;  889.020
937.540;  146.627;  -13.990;  838.280
938.097;  145.181;  -14.040;  940.120
938.654;  145.439;  -10.310;  898.860
939.211;  147.807;  -10.560;  952.480
939.768;  150.843;  -13.900;  915.420
940.324;  153.961;  -14.760;  904.200
940.881;  156.798;  -10.370;  878.500
941.438;  157.028;   -8.260; 1021.200
941.995;  152.529;  -12.540;  992.560
942.551;  149.747;  -14.670;  875.620
943.108;  149.183;  -10.450;  937.920
943.664;  152.338;  -10.750;  869.340
944.221;  155.387;  -11.550; 1088.140
944.777;  153.042;  -14.770;  869.680
945.334;  153.936;  -12.820;  884.840
945.890;  155.206;  -10.130;  946.480
946.446;  155.690;  -13.470;  947.020
947.003;  156.703;  -12.120;  964.940
947.559;  159.694;   -9.980; 1063.040
948.115;  159.483;   -9.080; 1026.540
948.671;  157.516;  -10.830;  967.300
949.227;  155.318;  -12.440;  859.560
949.783;  153.269;  -12.910;  858.900
950.339;  155.300;  -10.270;  991.000
950.895;  155.180;  -13.630; 1023.840
951.451;  153.992;  -15.100;  925.280
952.007;  153.454;  -11.330;  998.540
952.563;  152.948;  -10.580;  937.780
953.118;  151.039;  -13.440;  904.940
953.674;  150.863;  -12.710;  935.780
954.230;  149.812;  -10.350;  949.640
954.785;  148.791;   -9.190;  936.640
955.341;  146.657;  -11.200;  998.160
955.897;  144.417;  -16.560;  834.660
956.452;  146.828;  -12.570;  953.840
957.008;  146.367;   -7.970; 1083.640
957.563;  144.366;  -11.940; 1009.540
958.118;  139.717;  -13.450;  877.700
958.674;  139.850;  -12.030;  946.780
959.229;  141.931;   -9.410; 1013.980
959.784;  139.428;  -12.000;  832.400
960.339;  138.519;  -14.780; 1001.280
960.894;  133.999;   -9.860;  963.760
961.449;  129.968;   -9.970;  859.960
962.004;  131.034;  -10.900; 1212.840
962.559;  124.398;  -13.150;  860.140
963.114;  121.840;  -13.740;  742.480
963.669;  121.295;   -9.820;  915.500
964.224;  119.668;  -13.890;  874.340
964.779;  119.078;  -12.600;  828.420
965.334;  120.103;  -10.950; 1017.860
965.888;  119.479;  -11.170;  875.360
966.443;  122.158;  -12.540;  972.380
966.998;  121.606;  -15.780;  819.460
967.552;  120.706;   -9.760;  908.380
968.107;  117.201;   -9.060;  868.300
968.661;  119.083;  -11.950;  922.440
969.216;  118.520;  -12.800;  856.280
969.770;  118.847;  -11.210;  917.200
970.324;  118.003;  -11.610;  923.140
970.879;  114.587;  -11.370;  947.180
971.433;  111.055;  -12.540;  952.720
971.987;  107.125;  -11.320;  895.340
972.541;  102.801;  -10.720;  917.100
973.095;  102.930;   -9.680; 1009.460
973.649;  101.190;  -11.440;  809.480
974.203;  100.037;  -11.210;  829.040
974.757;  100.149;  -10.240;  855.220
975.311;  100.830;  -13.720;  872.600
975.865;  100.299;  -13.770;  881.820
976.419;   98.172;  -11.690;  857.400
976.973;   98.214;   -9.510;  849.620
977.526;   99.696;  -12.620;  949.920
978.080;   98.943;  -12.010;  796.780
978.634;  100.248;  -10.170;  921.320
979.187;   98.107;   -9.020;  905.400
979.741;   95.541;   -9.820; 1018.380
980.294;   90.101;  -14.870;  789.160
980.848;   88.563;  -12.380;  717.220
981.401;   90.826;  -10.350;  816.540
981.955;   91.990;  -13.720;  844.300
982.508;   91.670;  -11.490;  746.340
983.061;   91.129;  -10.000;  915.260
983.615;   88.704;  -11.480;  798.800
984.168;   85.498;  -13.220;  770.080
984.721;   84.200;  -13.960;  880.760
985.274;   84.183;  -10.870;  867.500
985.827;   82.589;   -9.790;  834.220
986.380;   80.264;  -13.120;  721.340
986.933;   79.301;  -12.450;  864.800
987.486;   77.312;  -10.210;  861.920
988.039;   77.378;   -8.430;  863.100
988.591;   74.321;  -10.520;  893.260
989.144;   72.906;  -14.860;  737.260
989.697;   71.683;  -13.080;  758.740
990.250;   72.537;  -10.150;  858.100
990.802;   71.084;  -13.430;  755.860
991.355;   71.993;  -12.750;  974.880
991.907;   69.855;  -12.040;  864.320
992.460;   67.717;  -11.330;  753.760
993.012;   66.844;  -13.610;  749.540
993.565;   65.957;  -13.460;  711.360
994.117;   67.025;   -9.360;  950.780
994.669;   63.905;  -11.300;  701.320
995.221;   61.983;  -13.540;  791.920
995.774;   59.904;  -13.430;  787.580
996.326;   58.048;  -12.520;  740.220
996.878;   58.619;  -10.950;  838.420
997.430;   56.015;  -14.300;  699.860
997.982;   55.485;  -13.760;  750.140
998.534;   54.142;  -11.530;  739.060
999.086;   54.318;  -10.310;  738.220
999.638;   52.949;  -12.530;  661.380
1000.190;   51.732;  -11.840;  699.320
1000.741;   51.516;  -10.260;  742.700
1001.293;   51.350;   -8.860;  686.020
1001.845;   50.289;  -13.700;  676.640
1002.396;   50.276;  -12.100;  743.400
1002.948;   49.650;  -12.760;  737.400
1003.500;   48.554;  -10.380;  723.780
1004.051;   48.655;  -11.900;  907.580
1004.603;   46.859;  -12.250;  791.820
1005.154;   44.121;  -13.210;  608.980
1005.705;   42.325;  -10.950;  723.960
1006.257;   41.760;  -13.880;  707.220
1006.808;   41.289;  -12.840;  685.460
1007.359;   40.356;  -10.570;  763.240
1007.910;   39.535;   -9.620;  646.640
1008.461;   39.047;  -13.630;  732.940
1009.013;   39.010;  -17.200;  588.340
1009.564;   40.235;  -10.200;  793.520
1010.115;   37.829;  -12.570;  597.040
1010.665;   37.641;  -15.150;  602.160
1011.216;   37.521;  -14.480;  667.920
1011.767;   37.248;  -11.340;  697.920
1012.318;   36.900;   -9.780;  736.980
1012.869;   35.352;  -12.380;  679.000
1013.419;   35.365;  -15.560;  603.120
1013.970;   36.053;  -11.010;  666.640
1014.521;   34.538;  -11.610;  620.620
1015.071;   35.346;  -13.450;  670.380
1015.622;   35.441;  -13.870;  635.460
1016.172;   34.047;  -11.610;  596.820
1016.723;   34.137;  -12.120;  614.380
1017.273;   33.153;  -13.620;  604.160
1017.823;   33.688;  -14.140;  650.340
1018.374;   33.357;  -12.800;  611.760
1018.924;   33.170;  -12.340;  716.880
1019.474;   32.705;  -11.410;  718.880
1020.024;   31.121;  -14.770;  657.580
1020.574;   32.698;   -9.780;  726.160
1021.124;   32.774;   -8.560;  673.580
1021.674;   30.914;  -15.190;  559.120
1022.224;   32.354;  -13.530;  708.940
1022.774;   32.269;  -13.280;  668.820
1023.324;   32.390;  -10.690;  753.520
1023.874;   33.669;  -10.240;  875.760
1024.423;   30.335;  -12.540;  613.700
1024.973;   30.885;  -10.010;  610.760
1025.523;   30.115;  -10.550;  620.960
1026.072;   29.293;  -13.560;  606.420
1026.622;   29.894;  -15.120;  675.740
1027.172;   30.475;  -11.260;  715.660
1027.721;   28.664;  -11.410;  601.220
1028.270;   29.637;  -13.530;  663.400
1028.820;   29.077;  -13.680;  638.080
1029.369;   29.372;  -13.520;  612.700
1029.918;   29.261;  -10.980;  649.840
1030.468;   28.162;  -13.530;  564.780
1031.017;   29.101;  -13.170;  634.800
1031.566;   28.297;  -12.200;  608.900
1032.115;   28.020;   -9.960;  694.500
1032.664;   26.958;  -13.210;  596.480
1033.213;   27.451;  -12.500;  735.420
1033.762;   27.181;  -11.910;  635.620
1034.311;   27.460;   -9.640;  677.220
1034.860;   27.119;  -13.310;  691.000
1035.408;   27.438;  -11.830;  722.720
1035.957;   27.529;  -12.000;  719.540
1036.506;   25.524;  -11.690;  530.800
1037.055;   27.199;  -10.990;  844.320
1037.603;   26.286;  -15.120;  664.000
1038.152;   24.590;  -12.450;  534.760
1038.700;   25.321;  -10.560;  585.740
1039.249;   24.604;  -11.080;  681.220
1039.797;   25.239;  -12.540;  633.360
1040.345;   25.547;  -11.920;  705.420
1040.894;   25.386;  -11.410;  625.300
1041.442;   24.236;  -14.320;  632.200
1041.990;   23.648;  -16.240;  559.160
1042.538;   23.613;  -11.680;  536.180
1043.087;   23.935;  -10.760;  570.860
1043.635;   24.520;  -11.850;  670.500
1044.183;   23.474;  -15.480;  586.400
1044.731;   23.323;  -11.770;  576.000
1045.279;   23.188;  -13.090;  674.920
1045.827;   24.325;  -12.440;  892.400
1046.374;   22.448;  -13.840;  515.420
1046.922;   22.168;  -13.220;  590.580
1047.470;   23.863;  -10.230;  691.300
1048.018;   22.855;  -14.590;  647.960
1048.565;   23.709;  -12.050;  708.600
1049.113;   22.255;  -11.650;  557.000
1049.660;   22.255;  -10.510;  629.660
1050.208;   22.562;  -13.310;  675.640
1050.755;   21.380;  -15.900;  606.580
1051.303;   21.896;  -11.430;  686.820
1051.850;   21.609;   -8.480;  635.120
1052.397;   19.654;  -15.010;  473.960
1052.945;   21.088;  -13.960;  617.760
1053.492;   21.603;  -13.150;  741.840
1054.039;   22.255;   -9.630;  720.180
1054.586;   20.567;  -13.680;  557.240
1055.133;   20.787;  -14.570;  693.140
1055.680;   21.184;  -13.820;  646.620
1056.227;   19.967;  -11.730;  542.780
1056.774;   21.258;  -12.480;  794.980
1057.321;   19.322;  -13.930;  523.260
1057.868;   19.615;  -11.690;  651.320
1058.415;   19.797;   -9.520;  651.980
1058.961;   19.670;  -13.160;  678.940
1059.508;   19.920;  -12.920;  643.820
1060.055;   19.679;  -11.920;  581.780
1060.601;   20.539;  -11.500;  624.300
1061.148;   19.678;  -14.330;  616.820
1061.694;   18.510;  -16.870;  592.580
1062.241;   18.543;  -10.330;  596.320
1062.787;   18.837;  -10.620;  663.140
1063.334;   20.859;  -10.110;  808.560
1063.880;   19.471;  -13.400;  668.360
1064.426;   19.090;  -10.680;  706.820
1064.972;   17.908;   -9.920;  601.340
1065.518;   17.050;  -10.980;  566.640
1066.065;   18.317;  -14.890;  624.460
1066.611;   17.479;  -12.870;  598.800
1067.157;   18.216;  -12.950;  641.860
1067.703;   17.863;  -13.540;  668.480
1068.249;   17.988;  -13.540;  605.220
1068.794;   17.273;  -12.600;  626.880
1069.340;   16.888;  -10.620;  578.960
1069.886;   17.156;  -12.830;  590.700
1070.432;   16.053;  -14.870;  541.720
1070.977;   16.450;  -11.980;  601.080
1071.523;   16.519;   -8.200;  573.060
1072.068;   16.502;  -12.330;  582.000
1072.614;   16.145;  -16.370;  527.760
1073.160;   16.898;  -11.100;  687.040
1073.705;   15.281;  -10.480;  572.520
1074.250;   16.042;  -14.520;  559.900
1074.796;   16.369;  -11.460;  655.160
1075.341;   16.697;  -11.950;  664.100
1075.886;   16.290;  -11.460;  594.240
1076.431;   15.183;  -13.770;  649.880
1076.976;   15.007;  -12.680;  639.220
1077.521;   14.959;  -13.170;  583.080
1078.067;   14.999;  -10.860;  579.400
1078.612;   15.013;  -13.920;  661.620
1079.156;   14.566;  -13.880;  601.540
1079.701;   15.084;  -13.120;  693.260
1080.246;   14.753;   -9.940;  696.300
1080.791;   15.247;  -14.740;  625.020
1081.336;   14.207;  -13.750;  659.320
1081.880;   13.944;  -13.400;  649.680
1082.425;   14.086;  -12.220;  573.480
1082.970;   15.692;  -11.610;  717.040
1083.514;   13.625;  -13.580;  597.000
1084.059;   13.215;  -12.810;  586.720
1084.603;   12.615;  -12.320;  565.840
1085.147;   13.197;  -13.190;  645.220
1085.692;   14.345;  -12.480;  716.800
1086.236;   12.531;  -13.020;  503.140
1086.780;   14.361;   -9.190;  751.440
1087.325;   13.222;  -12.480;  654.620
1087.869;   13.090;  -12.450;  610.700
1088.413;   14.084;  -12.240;  705.040
1088.957;   11.560;   -9.020;  543.400
1089.501;   13.785;  -10.320;  766.640
1090.045;   12.692;  -12.720;  726.480
1090.589;   11.396;  -13.690;  569.920
1091.133;   12.157;  -10.020;  673.340
1091.676;   12.597;  -12.330;  591.940
1092.220;   12.106;  -14.970;  600.920
1092.764;   12.777;  -12.430;  706.960
1093.307;   12.589;   -9.800;  673.780
1093.851;   10.953;  -14.970;  556.540
1094.395;   12.021;  -15.310;  683.140
1094.938;   10.887;  -10.370;  632.520
1095.482;   11.577;  -11.050;  559.800
1096.025;   12.075;  -11.840;  710.880
1096.568;   12.219;  -12.840;  779.280
1097.112;    9.684;  -14.700;  508.180
1097.655;   11.314;   -8.720;  603.000
1098.198;    9.648;  -13.610;  600.180
1098.741;    9.622;  -13.350;  612.860
1099.285;   11.639;  -11.230;  657.300
1099.828;    9.277;  -11.840;  439.400
1100.371;   10.501;  -10.840;  608.160
1100.914;   10.404;  -14.190;  682.660
1101.457;   10.329;  -11.240;  679.900
1101.999;    9.296;  -11.270;  584.680
1102.542;   10.068;  -11.480;  641.440
1103.085;    9.332;  -11.750;  658.500
1103.628;   10.027;  -11.400;  762.060
1104.170;    9.578;  -10.490;  588.280
1104.713;   10.144;  -10.600;  646.700
1105.256;    8.876;  -14.360;  557.440
1105.798;    8.079;  -13.210;  499.980
1106.341;   10.482;  -10.270;  728.900
1106.883;    8.760;  -12.200;  521.340
1107.425;    8.420;  -13.110;  668.180
1107.968;    8.968;  -12.840;  612.380
1108.510;    9.444;   -6.480;  684.960
1109.052;    8.029;  -13.940;  612.620
1109.594;    7.809;  -13.690;  554.440
1110.136;    8.945;  -11.880;  643.220
1110.679;    8.542;   -9.500;  633.080
1111.221;    8.985;  -14.160;  604.460
1111.763;    7.685;  -13.980;  559.220
1112.304;    7.881;  -13.880;  547.140
1112.846;    8.127;  -12.210;  666.240
1113.388;   10.426;  -11.390;  942.180
1113.930;    7.779;  -14.540;  694.200
1114.472;    6.536;  -12.640;  606.540
1115.013;    5.883;  -11.620;  551.280
1115.555;    6.721;  -13.640;  587.100
1116.097;    6.124;  -15.380;  579.480
1116.638;    7.722;  -12.640;  684.600
1117.180;    7.203;   -9.850;  667.740
1117.721;    7.249;  -13.690;  568.580
1118.262;    7.768;  -12.680;  677.960
1118.804;    7.508;  -12.530;  637.340
1119.345;    6.681;  -11.690;  578.400
1119.886;    7.658;  -13.380;  704.040
1120.427;    5.992;  -14.070;  589.020
1120.969;    5.905;  -13.500;  597.920
1121.510;    5.607;  -11.480;  563.060
1122.051;    6.731;  -12.830;  723.580
1122.592;    5.269;  -14.290;  655.420
1123.133;    4.454;  -12.400;  547.940
1123.673;    6.924;  -10.130;  706.480
1124.214;    5.503;  -12.930;  612.460
1124.755;    6.398;  -14.380;  639.460
1125.296;    5.767;  -14.000;  627.320
1125.836;    6.716;  -10.070;  691.500
1126.377;    5.473;  -12.640;  599.660
1126.918;    6.111;  -12.960;  614.980
1127.458;    5.064;  -13.350;  622.220
1127.999;    6.172;  -10.750;  656.980
1128.539;    5.303;  -12.350;  694.240
1129.079;    4.550;  -14.860;  632.720
1129.620;    3.797;  -13.840;  558.100
1130.160;    4.210;  -12.330;  539.480
1130.700;    5.907;  -14.530;  640.840
1131.240;    5.662;  -12.530;  643.700
1131.781;    4.790;  -14.450;  619.680
1132.321;    4.232;   -9.790;  599.120
1132.861;    3.312;  -14.860;  564.200
1133.401;    3.079;  -14.290;  593.940
1133.941;    4.139;  -11.750;  626.280
1134.481;    3.450;   -9.920;  597.580
1135.020;    3.639;  -12.290;  609.160
1135.560;    3.851;  -11.650;  674.940
1136.100;    2.602;  -16.270;  501.160
1136.640;    3.378;  -10.890;  510.480
1137.179;    3.375;  -14.180;  537.960
1137.719;    3.133;  -16.250;  605.400
1138.258;    3.661;  -14.230;  587.360
1138.798;    3.784;   -9.090;  663.780
1139.337;    2.304;  -15.130;  482.840
1139.877;    3.165;  -13.680;  642.360
1140.416;    4.960;  -11.320;  878.060
1140.955;    2.324;  -10.860;  535.380
1141.494;    2.999;  -12.920;  669.280
1142.034;    2.057;  -13.930;  583.520
1142.573;    3.681;  -11.440;  646.280
1143.112;    2.137;  -12.000;  553.480
1143.651;    1.926;  -13.670;  536.480
1144.190;    3.693;  -12.730;  691.640
1144.729;    2.312;  -14.560;  607.420
1145.267;    2.405;  -11.830;  584.900
1145.806;    3.253;  -12.230;  637.040
1146.345;    1.960;  -14.130;  635.020
1146.884;    2.212;  -11.590;  622.500
1147.422;    2.022;  -12.550;  533.060
1147.961;    3.620;  -11.180;  708.460
1148.500;    2.843;  -11.510;  669.720
1149.038;    3.310;  -11.640;  632.500
1149.577;    1.955;  -10.130;  698.640
1150.115;    0.803;  -13.970;  452.280
1150.653;    2.241;  -14.520;  607.340
1151.192;    1.389;  -12.810;  552.920
1151.730;    2.174;   -9.100;  652.560
1152.268;    1.442;  -12.220;  589.520
1152.806;    1.040;  -14.140;  571.180
1153.344;   -0.678;  -12.350;  577.640
1153.882;    0.899;   -8.980;  600.060
1154.421;    0.177;  -15.190;  470.620
1154.958;    0.346;  -15.210;  595.240
1155.496;    2.059;  -12.850;  645.280
1156.034;    0.856;   -9.940;  721.880
1156.572;    2.141;  -13.570;  667.060
1157.110;   -0.363;  -14.590;  473.940
1157.647;    1.524;  -13.030;  676.960
1158.185;    0.022;  -12.140;  564.320
1158.723;   -0.941;  -14.390;  509.200
1159.260;    0.853;  -14.090;  701.700
1159.798;    1.184;  -11.920;  658.160
1160.335;    0.775;  -11.110;  631.820

