
Integration time [ms]:   3.276
Averaging Nr. [scans]: 1000
Smoothing Nr. [pixels]: 0
Data measured with spectrometer [name]: 7414430SP
Wave   ;Sample   ;Dark     ;Reference
[nm]   ;[counts] ;[counts] ;[counts] 

288.544;  152.121;    7.793;  793.890
289.143;  155.756;    7.462;  681.602
289.742;  154.857;    8.602;  828.814
290.341;  141.157;    1.321;  789.841
290.940;  130.058;   -0.709;  730.702
291.538;  130.932;    0.881;  881.108
292.137;  130.826;    0.122;  792.581
292.736;  136.070;   -1.929;  975.101
293.335;  132.235;   -8.229;  735.086
293.934;  132.094;   -5.279;  781.677
294.532;  130.381;   -1.369; 1031.958
295.131;  116.429;   -7.641;  834.394
295.730;  116.869;   -8.420;  809.588
296.328;  115.832;   -5.611;  783.442
296.927;  116.111;   -5.781;  779.652
297.525;  117.565;   -6.361;  781.236
298.124;  107.580;  -11.382;  654.009
298.722;  111.417;   -7.641;  761.933
299.321;  110.206;   -6.811;  708.597
299.919;  107.459;   -6.991;  751.918
300.518;  104.692;  -10.362;  689.338
301.116;  105.303;   -9.581;  691.381
301.715;  105.692;   -4.891;  730.222
302.313;  104.856;   -8.801;  704.943
302.911;  100.315;   -8.522;  733.830
303.509;  106.689;   -6.171;  925.627
304.108;  103.025;   -7.311;  760.383
304.706;  102.687;   -8.321;  801.664
305.304;   96.911;  -10.222;  796.707
305.902;  102.568;   -6.021;  784.484
306.500;   98.067;   -4.971;  728.200
307.098;   96.643;   -7.061;  746.560
307.696;   95.258;   -8.801;  780.432
308.294;   95.485;   -6.411;  731.359
308.892;   96.968;   -2.901;  759.769
309.490;   93.724;   -5.041;  712.161
310.088;   91.776;   -5.002;  788.444
310.686;   96.325;   -2.041;  821.749
311.284;   90.811;   -2.351;  766.040
311.882;   89.697;   -4.422;  731.225
312.480;   86.267;   -4.192;  697.167
313.078;   87.729;   -1.172;  808.331
313.675;   88.576;   -2.601;  691.600
314.273;   84.215;   -1.312;  797.837
314.871;   83.896;   -3.942;  589.829
315.468;   81.854;   -2.802;  652.090
316.066;   83.928;   -0.701;  694.427
316.664;   76.491;   -4.362;  656.351
317.261;   81.485;   -2.872;  910.128
317.859;   76.678;   -2.022;  768.735
318.456;   76.549;   -0.531;  830.096
319.054;   72.310;   -3.912;  787.828
319.651;   71.899;   -4.752;  759.928
320.249;   70.278;   -2.602;  810.188
320.846;   68.132;   -0.821;  714.286
321.443;   66.238;   -4.642;  832.135
322.041;   63.108;   -5.002;  812.315
322.638;   60.575;   -3.982;  701.456
323.235;   61.842;   -3.411;  665.683
323.833;   58.803;   -7.361;  740.354
324.430;   54.300;   -8.611;  615.900
325.027;   55.816;   -4.061;  876.855
325.624;   54.831;   -4.031;  644.532
326.221;   52.320;   -7.481;  689.717
326.818;   52.288;   -5.281;  818.332
327.415;   54.721;   -7.460;  748.828
328.012;   54.608;   -5.510;  690.585
328.609;   53.692;   -7.880;  731.389
329.206;   51.468;   -8.331;  778.621
329.803;   51.376;   -5.121;  737.841
330.400;   53.985;   -4.510;  704.260
330.997;   55.459;   -6.441;  817.147
331.594;   54.517;   -8.831;  788.185
332.191;   59.618;   -7.621;  728.722
332.787;   62.146;   -4.591;  844.463
333.384;   60.607;   -7.412;  763.093
333.981;   59.598;   -8.293;  815.687
334.578;   62.145;   -7.052;  708.378
335.174;   64.474;   -3.102;  731.469
335.771;   64.034;   -5.943;  836.456
336.367;   61.793;   -7.393;  710.631
336.964;   65.143;   -4.063;  793.266
337.561;   62.703;   -3.813;  731.112
338.157;   58.171;   -4.654;  911.916
338.754;   56.529;   -7.934;  796.589
339.350;   54.396;   -4.414;  722.493
339.946;   55.884;   -4.664;  773.135
340.543;   48.755;   -6.375;  846.136
341.139;   43.163;   -9.815;  720.836
341.735;   41.702;   -4.526;  772.593
342.332;   39.592;   -4.895;  691.472
342.928;   40.059;   -4.295;  795.394
343.524;   35.072;   -5.476;  761.684
344.120;   30.409;   -5.856;  738.562
344.716;   33.851;   -2.155;  723.717
345.313;   31.679;   -6.275;  795.342
345.909;   26.494;   -8.815;  627.336
346.505;   28.784;   -5.305;  740.247
347.101;   28.841;   -2.674;  827.864
347.697;   29.330;   -4.344;  785.398
348.293;   23.658;   -9.975;  627.244
348.889;   24.889;   -5.774;  745.914
349.485;   24.247;   -5.004;  688.205
350.081;   24.548;   -4.704;  772.592
350.676;   19.922;   -6.635;  691.606
351.272;   24.246;   -4.504;  809.530
351.868;   24.132;   -3.914;  780.497
352.464;   21.257;   -9.044;  723.932
353.059;   17.739;   -8.314;  646.017
353.655;   20.588;   -7.024;  777.063
354.251;   21.582;   -5.343;  759.845
354.846;   17.048;   -8.604;  740.646
355.442;   14.554;   -6.945;  753.071
356.038;   16.739;   -7.564;  751.708
356.633;   16.615;   -5.814;  728.594
357.229;   13.586;   -7.364;  724.757
357.824;   12.938;   -8.024;  703.600
358.420;   11.069;   -9.384;  679.726
359.015;   11.786;   -5.104;  695.357
359.610;   12.207;   -6.854;  763.920
360.206;    7.230;  -10.185;  603.240
360.801;   10.367;   -7.054;  646.503
361.396;   12.578;   -5.034;  725.975
361.992;    7.584;   -8.284;  668.220
362.587;    4.619;   -8.625;  670.160
363.182;    7.239;   -7.674;  689.631
363.777;    7.567;   -5.164;  738.242
364.372;    7.020;   -8.604;  737.314
364.967;    3.678;   -9.055;  680.744
365.563;    7.853;   -6.114;  815.567
366.158;    5.047;   -5.814;  685.161
366.753;    5.846;   -7.854;  649.263
367.348;    4.805;   -7.804;  746.056
367.942;    3.700;   -7.954;  697.298
368.537;    2.972;   -4.984;  754.245
369.132;    3.271;   -8.564;  703.428
369.727;   -1.394;   -8.855;  638.079
370.322;    0.921;   -6.245;  580.186
370.917;    0.196;   -6.425;  710.646
371.511;    3.658;   -6.294;  861.834
372.106;   -0.405;   -7.685;  776.964
372.701;   -2.869;   -7.335;  585.988
373.296;    1.875;   -4.564;  863.135
373.890;   -2.804;  -10.235;  647.840
374.485;   -4.501;   -7.885;  691.199
375.079;   -0.705;   -7.324;  738.685
375.674;    0.746;   -3.494;  812.970
376.268;   -3.653;   -8.525;  691.759
376.863;   -9.407;  -10.086;  580.327
377.457;   -3.484;   -7.025;  662.490
378.052;   -4.884;   -3.585;  764.884
378.646;   -5.652;   -7.595;  741.167
379.240;   -6.050;   -8.335;  721.176
379.835;   -5.143;   -5.785;  636.978
380.429;   -7.719;   -4.335;  562.557
381.023;   -7.380;   -6.805;  779.205
381.617;   -9.954;   -9.195;  680.106
382.212;   -6.206;   -6.905;  685.303
382.806;   -5.459;   -3.745;  760.690
383.400;   -9.649;   -7.745;  672.281
383.994;  -10.381;   -9.765;  664.870
384.588;   -6.604;   -6.564;  697.701
385.182;   -4.849;   -5.344;  726.624
385.776;   -6.390;   -8.514;  706.875
386.370;  -10.218;   -9.555;  681.968
386.964;   -8.737;   -8.715;  684.155
387.558;   -6.795;   -6.174;  598.360
388.152;  -10.741;   -8.725;  681.959
388.745;   -8.763;   -7.965;  814.707
389.339;   -7.140;   -5.924;  747.642
389.933;   -5.440;   -5.524;  695.370
390.527;   -7.241;   -7.114;  859.029
391.120;  -13.181;  -10.725;  595.318
391.714;  -10.812;   -8.035;  711.633
392.308;   -7.955;   -3.574;  780.253
392.901;  -11.257;   -7.245;  642.460
393.495;  -12.330;   -9.285;  595.414
394.089;  -10.534;   -5.895;  760.452
394.682;  -11.356;   -4.295;  697.188
395.275;  -11.657;   -9.875;  719.927
395.869;  -12.635;   -8.485;  667.314
396.462;  -11.659;   -7.455;  616.609
397.056;   -7.762;   -5.424;  776.621
397.649;  -12.201;   -6.605;  731.575
398.242;   -9.428;   -8.224;  712.645
398.836;   -8.502;   -7.474;  766.408
399.429;   -9.620;   -7.094;  631.041
400.022;  -12.993;   -9.475;  665.902
400.615;  -10.806;   -7.145;  805.609
401.208;   -8.195;   -7.174;  691.451
401.802;  -10.979;   -5.515;  699.329
402.395;  -12.677;   -9.875;  683.502
402.988;  -12.470;   -8.845;  696.627
403.581;   -9.667;   -8.874;  646.878
404.174;   -8.239;   -5.324;  686.568
404.767;  -11.005;   -9.575;  638.583
405.360;  -12.793;  -10.965;  621.445
405.953;   -7.391;   -8.764;  759.034
406.545;   -6.894;   -7.514;  725.342
407.138;  -10.911;  -10.025;  618.350
407.731;  -10.252;  -10.034;  613.303
408.324;   -6.161;   -9.374;  660.554
408.917;   -6.755;   -6.534;  681.864
409.509;   -8.387;   -8.004;  740.396
410.102;  -10.601;   -9.875;  643.948
410.695;   -4.650;   -8.604;  665.758
411.287;   -5.204;   -6.794;  599.821
411.880;   -6.678;   -9.334;  585.421
412.472;   -9.832;  -10.254;  613.092
413.065;   -6.215;   -6.714;  629.408
413.657;   -5.163;   -7.234;  576.678
414.250;   -4.804;  -10.544;  646.681
414.842;   -6.033;   -9.744;  676.353
415.434;   -4.020;   -6.994;  570.463
416.027;   -0.514;   -5.893;  652.196
416.619;   -1.663;   -7.264;  713.400
417.211;   -2.574;  -10.374;  599.352
417.804;    1.011;   -7.993;  628.499
418.396;   -2.889;   -7.234;  607.643
418.988;   -0.543;   -9.443;  659.238
419.580;   -4.475;  -10.724;  568.276
420.172;   -1.717;  -10.323;  536.196
420.764;    2.423;   -8.793;  672.482
421.356;    1.207;  -11.143;  636.898
421.948;    0.299;   -8.293;  677.661
422.540;    5.573;   -7.893;  680.027
423.132;    4.679;   -7.082;  600.641
423.724;    2.111;   -8.653;  561.267
424.316;    3.460;  -10.213;  621.345
424.908;    6.999;   -9.762;  591.517
425.500;    7.625;   -5.572;  647.978
426.092;    8.564;   -8.422;  648.268
426.683;    7.291;   -9.283;  684.836
427.275;    9.910;   -7.852;  641.471
427.867;   11.346;   -5.272;  668.948
428.458;   12.210;   -7.682;  732.344
429.050;   10.550;  -10.612;  680.749
429.642;   12.979;   -9.882;  743.124
430.233;   12.831;   -6.962;  569.356
430.825;   13.947;   -6.842;  724.809
431.416;   12.392;   -9.672;  698.241
432.008;   15.469;   -6.552;  651.723
432.599;   16.989;   -6.891;  656.073
433.190;   13.743;  -10.912;  637.670
433.782;   12.643;  -11.172;  590.395
434.373;   19.834;   -6.061;  884.765
434.964;   18.565;   -8.251;  602.920
435.556;   16.978;   -9.722;  634.537
436.147;   19.730;   -9.082;  758.490
436.738;   19.439;   -8.041;  701.099
437.329;   24.991;   -7.341;  721.723
437.920;   17.647;   -8.162;  666.688
438.511;   17.907;  -11.802;  564.526
439.103;   24.716;  -10.191;  623.998
439.694;   25.625;   -7.601;  681.583
440.285;   27.034;   -8.541;  764.432
440.876;   24.645;   -9.751;  845.738
441.466;   24.545;   -9.401;  575.162
442.057;   29.635;   -7.760;  665.814
442.648;   28.673;   -9.971;  746.255
443.239;   26.650;  -11.001;  620.477
443.830;   32.405;   -7.990;  704.958
444.421;   33.321;   -7.910;  655.474
445.011;   30.207;   -8.131;  693.619
445.602;   30.013;   -7.111;  743.126
446.193;   31.185;  -10.920;  488.117
446.783;   36.295;   -6.500;  640.397
447.374;   31.670;   -8.671;  692.759
447.964;   32.510;  -10.781;  713.770
448.555;   41.602;   -9.650;  822.742
449.145;   37.260;   -8.660;  662.853
449.736;   38.346;   -8.990;  803.179
450.326;   38.371;   -9.500;  713.626
450.917;   43.352;   -8.680;  675.324
451.507;   42.060;   -7.520;  600.661
452.097;   42.881;   -8.590;  746.267
452.688;   43.627;  -11.340;  742.160
453.278;   44.771;  -10.100;  566.840
453.868;   48.434;   -6.019;  793.550
454.458;   46.314;   -9.440;  651.141
455.048;   47.031;  -10.560;  711.783
455.639;   47.989;  -11.799;  567.096
456.229;   51.808;   -6.899;  710.694
456.819;   53.866;   -7.389;  751.158
457.409;   54.156;  -11.119;  773.993
457.999;   56.964;   -9.289;  737.505
458.589;   58.119;   -6.139;  686.606
459.179;   56.868;   -8.729;  717.658
459.769;   55.249;   -9.789;  627.099
460.358;   59.432;  -10.259;  797.262
460.948;   60.510;   -7.299;  689.503
461.538;   61.634;  -10.289;  660.677
462.128;   59.517;  -11.269;  664.934
462.717;   66.679;   -9.368;  710.326
463.307;   69.038;   -7.908;  705.846
463.897;   65.023;   -9.599;  656.942
464.486;   65.023;   -9.769;  837.128
465.076;   69.176;   -8.048;  733.776
465.666;   72.232;   -9.358;  652.900
466.255;   70.745;   -7.919;  785.651
466.845;   69.608;  -11.689;  666.749
467.434;   72.621;   -7.818;  725.873
468.023;   73.896;   -7.678;  658.357
468.613;   70.968;  -10.939;  713.946
469.202;   76.611;  -10.118;  646.507
469.791;   79.650;   -9.108;  737.811
470.381;   81.768;   -6.058;  742.813
470.970;   81.408;  -10.428;  711.099
471.559;   81.223;  -10.268;  733.291
472.148;   84.156;   -8.448;  675.737
472.738;   87.255;   -6.917;  765.466
473.327;   86.619;  -11.978;  637.529
473.916;   86.802;  -11.888;  737.446
474.505;   90.835;   -9.437;  751.703
475.094;   94.771;   -6.747;  806.570
475.683;   93.503;   -9.367;  797.699
476.272;   94.302;  -12.637;  730.632
476.861;   97.660;  -10.027;  706.754
477.449;  103.750;   -8.716;  728.487
478.038;   98.251;   -9.577;  692.513
478.627;   99.647;   -9.718;  714.852
479.216;  106.341;   -8.947;  769.441
479.805;  109.076;   -6.256;  783.375
480.393;  108.499;   -7.937; 1008.945
480.982;  108.517;   -7.717;  874.501
481.571;  115.058;   -9.266;  858.333
482.159;  114.865;   -7.636;  705.386
482.748;  115.545;   -9.667;  821.385
483.336;  120.250;  -10.376;  858.209
483.925;  121.140;   -7.147;  774.373
484.513;  126.823;   -7.996;  758.962
485.102;  124.291;  -10.027;  810.965
485.690;  132.673;  -10.446; 1011.050
486.278;  135.162;   -8.446;  979.329
486.867;  136.493;   -6.356;  809.662
487.455;  138.735;   -9.136;  898.229
488.043;  139.373;  -10.646;  748.361
488.631;  148.625;   -7.456; 1005.079
489.220;  152.455;   -6.636;  908.626
489.808;  153.294;  -11.036;  741.415
490.396;  161.652;  -10.246;  914.645
490.984;  167.636;   -8.556;  830.161
491.572;  178.132;   -5.886;  940.315
492.160;  184.416;   -9.486;  919.081
492.748;  197.580;  -10.976;  884.341
493.336;  220.744;   -8.776; 1019.693
493.924;  249.046;   -5.465;  958.077
494.512;  279.584;   -9.986; 1066.638
495.100;  318.680;  -10.636; 1103.280
495.687;  378.197;  -10.885; 1206.373
496.275;  445.939;   -8.126; 1150.796
496.863;  521.436;  -10.586; 1281.171
497.451;  626.703;  -11.926; 1386.805
498.038;  771.293;  -10.885; 1556.729
498.626;  884.608;   -6.315; 1741.407
499.214; 1045.576;   -7.326; 2016.609
499.801; 1263.191;  -11.906; 2220.633
500.389; 1517.114;  -10.466; 2312.494
500.976; 1838.883;   -5.236; 2744.849
501.564; 2304.249;   -8.936; 3148.565
502.151; 2698.517;  -13.176; 3515.999
502.738; 3155.141;  -10.646; 3971.274
503.326; 3571.125;   -9.525; 4403.796
503.913; 3998.536;  -10.856; 5161.749
504.500; 4414.177;  -11.586; 5986.420
505.088; 4808.059;  -10.336; 6381.201
505.675; 5397.901;   -6.355; 6925.547
506.262; 6134.680;   -9.046; 7619.060
506.849; 6900.057;  -10.416; 8733.969
507.436; 7468.538;  -10.305; 9790.121
508.023; 8108.802;   -5.496; 9985.472
508.610; 8369.131;   -7.856;10434.618
509.197; 9005.204;  -10.097;11198.435
509.784;10464.389;  -10.886;12391.194
510.371;11671.704;   -9.315;13603.713
510.958;12382.166;   -9.936;14426.586
511.545;13126.990;   -9.326;15243.775
512.132;14093.259;  -10.075;15945.876
512.719;14752.893;   -7.796;16340.369
513.305;15991.563;  -10.606;18011.766
513.892;16741.195;  -11.486;19754.971
514.479;17981.969;   -9.126;20967.805
515.066;19487.811;   -6.026;22299.793
515.652;21123.320;   -8.466;22908.660
516.239;22512.563;  -10.886;23798.875
516.825;23509.953;  -11.496;25567.275
517.412;24724.023;   -5.796;28154.959
517.998;25594.457;  -10.506;28344.111
518.585;25470.332;  -10.076;27134.219
519.171;25994.961;   -8.315;27268.576
519.758;28100.795;   -8.596;28964.129
520.344;30245.740;   -8.466;30664.494
520.930;29859.160;  -11.006;32550.605
521.516;31215.141;  -10.495;35422.895
522.103;33272.320;   -5.526;38280.004
522.689;34006.859;   -8.746;37835.117
523.275;33333.652;  -11.376;37288.613
523.861;34705.973;  -11.156;37281.395
524.447;36594.840;   -8.135;37846.949
525.033;36422.617;   -7.896;38321.949
525.619;36552.039;  -12.476;38579.285
526.205;38070.266;   -9.516;40622.875
526.791;41113.148;   -6.926;42258.836
527.377;40867.539;   -8.346;42966.902
527.963;42089.898;   -8.717;42018.949
528.549;41205.309;  -11.016;42476.828
529.135;39887.680;   -8.536;41854.852
529.721;39018.121;   -9.666;41237.711
530.306;38467.051;  -10.066;41259.445
530.892;38082.391;  -11.356;41506.047
531.478;39231.844;   -6.596;43559.613
532.063;42801.910;   -8.836;47695.563
532.649;43765.938;  -10.047;50808.324
533.235;44359.484;   -9.746;51787.500
533.820;44828.848;   -6.566;52145.035
534.406;46150.371;  -10.817;51133.488
534.991;46182.816;   -9.416;49996.805
535.576;44438.770;   -9.036;48882.852
536.162;45040.969;   -6.156;46942.285
536.747;46405.117;  -11.607;45711.746
537.333;49613.813;  -11.787;48510.180
537.918;52479.133;  -12.437;50439.891
538.503;51637.215;   -7.196;50863.711
539.088;48367.586;  -10.556;50906.922
539.673;48516.164;   -8.767;52621.965
540.259;48912.297;  -10.026;52368.094
540.844;46156.785;   -7.416;50879.109
541.429;47864.320;   -9.467;52077.777
542.014;50302.152;   -9.527;52716.695
542.599;49455.656;   -9.946;52363.281
543.184;46221.531;   -7.927;53187.137
543.769;47393.480;   -9.297;54697.605
544.354;47414.996;  -10.127;53913.914
544.938;45801.891;   -9.267;49680.164
545.523;47483.063;   -6.506;47386.277
546.108;50286.727;   -9.787;49151.949
546.693;52514.957;  -11.587;51384.637
547.278;52810.672;  -10.986;51853.254
547.862;49563.867;   -8.206;51173.750
548.447;44763.766;  -10.067;51691.395
549.031;43964.152;   -9.637;52456.703
549.616;48944.039;   -9.926;52714.516
550.201;48593.457;   -6.347;52414.598
550.785;49878.340;   -7.917;52355.059
551.370;49071.094;  -10.867;54589.453
551.954;48783.324;   -9.047;58267.348
552.538;49564.836;   -7.827;59062.176
553.123;47882.355;  -10.287;58115.285
553.707;45799.328;  -12.178;56556.285
554.291;47392.469;   -8.717;56201.668
554.876;50477.391;   -7.457;55335.762
555.460;50777.844;  -10.387;54155.703
556.044;51004.656;   -9.618;53721.484
556.628;48556.672;  -11.567;53731.016
557.212;47069.355;   -8.097;54312.531
557.796;46005.852;  -11.077;53797.773
558.380;46135.887;  -11.108;56145.984
558.964;46194.063;   -9.057;57277.930
559.548;46881.652;   -6.977;56459.641
560.132;44929.887;  -11.457;54434.543
560.716;43599.477;  -11.378;54800.617
561.300;45000.898;   -9.577;57606.945
561.884;46038.398;   -7.127;58972.445
562.467;44027.082;   -7.118;57327.570
563.051;43102.035;  -13.358;54962.434
563.635;44489.684;  -10.178;52594.473
564.219;45409.586;   -7.837;50610.410
564.802;46162.516;  -11.398;49551.180
565.386;45718.844;  -12.788;48370.953
565.969;45118.176;   -9.077;48178.871
566.553;44030.234;   -6.207;49957.305
567.136;44876.621;   -8.568;50369.594
567.720;41363.270;  -11.868;49492.004
568.303;39234.926;   -8.268;50616.352
568.887;39279.887;   -8.698;50727.148
569.470;39878.625;   -6.808;51698.379
570.053;39071.500;  -13.188;52122.078
570.637;36502.801;  -12.037;52536.438
571.220;35905.668;   -8.577;51186.098
571.803;36776.203;   -8.498;51032.762
572.386;39437.824;  -10.498;49609.887
572.969;42061.242;   -9.388;48285.926
573.552;40158.887;   -8.338;47624.285
574.135;38447.746;   -8.518;45498.641
574.718;35805.035;  -13.628;41970.434
575.301;35104.859;  -10.893;41447.137
575.884;34404.680;   -8.158;40923.836
576.467;35685.781;  -10.328;45267.723
577.050;37387.301;  -13.058;48175.543
577.633;38317.762;   -9.458;47729.328
578.216;37379.250;   -8.928;47579.793
578.799;36497.523;   -9.358;47820.996
579.381;35415.738;  -11.388;48115.551
579.964;33580.523;  -11.718;47333.766
580.547;35737.051;   -8.588;46668.969
581.129;36560.840;   -8.859;44466.141
581.712;37210.008;  -10.729;44164.922
582.294;37547.641;  -11.118;46477.855
582.877;37678.980;   -5.218;48244.254
583.459;35864.457;   -8.679;47437.895
584.042;33712.137;  -10.709;46943.219
584.624;33728.848;  -11.669;46792.227
585.206;33513.906;   -8.218;46557.250
585.789;33975.109;  -10.569;45793.773
586.371;36319.297;  -11.859;43836.391
586.953;36894.449;  -10.719;42972.492
587.536;37903.586;   -7.198;42487.211
588.118;38111.535;   -8.720;42086.414
588.700;34165.668;  -10.439;43389.930
589.282;33287.625;   -9.198;43646.039
589.864;34312.152;   -9.199;43438.109
590.446;35423.969;  -11.319;43151.926
591.028;35117.973;  -11.159;42781.867
591.610;33968.180;  -11.779;42839.098
592.192;31403.059;   -7.668;42820.402
592.774;30135.572;  -11.949;40724.277
593.356;29103.445;  -12.129;39874.789
593.937;28130.916;  -10.669;39980.648
594.519;30491.295;   -6.509;42069.633
595.101;32617.959;  -10.849;42976.031
595.683;32604.584;  -11.679;44084.441
596.264;33487.145;   -9.049;43478.797
596.846;33203.098;   -8.849;43803.672
597.427;32935.055;   -9.570;42986.934
598.009;34140.492;  -12.620;42832.219
598.591;34355.383;  -10.039;42580.086
599.172;33875.953;  -10.369;43061.805
599.753;33846.109;   -9.140;41691.469
600.335;35074.969;  -11.430;40692.520
600.916;33379.102;   -9.939;39982.422
601.498;31405.279;   -8.479;40318.617
602.079;29873.850;  -10.920;40670.609
602.660;29734.160;  -11.480;41450.898
603.241;31476.318;  -11.699;41137.738
603.823;30224.670;   -9.579;38868.797
604.404;29676.736;  -10.620;38182.785
604.985;31270.387;  -10.450;38078.047
605.566;31060.154;   -9.129;38056.633
606.147;31056.793;   -7.510;37020.418
606.728;32703.822;  -10.660;37883.359
607.309;31415.404;  -11.740;38748.273
607.890;31283.400;   -9.759;38850.230
608.471;30851.445;   -8.250;37457.918
609.051;30017.939;   -9.240;36066.457
609.632;28660.844;  -12.120;35991.074
610.213;28987.023;   -9.110;37402.641
610.794;29785.482;   -8.030;38383.363
611.374;29791.645;   -8.110;40562.387
611.955;30572.928;  -13.560;38533.727
612.536;31787.191;  -11.400;36951.789
613.116;31395.121;   -8.070;37197.891
613.697;31588.148;  -10.830;38411.125
614.277;29944.027;  -11.641;38673.938
614.858;30895.197;  -13.310;37075.863
615.438;30393.631;   -7.460;35092.906
616.019;27988.301;   -7.601;33666.301
616.599;28165.439;  -12.020;34189.023
617.179;29828.674;  -11.780;36952.047
617.760;31021.184;   -8.570;39582.574
618.340;31771.207;  -11.471;38943.977
618.920;32591.092;  -11.170;37594.156
619.500;32729.836;  -11.071;37866.938
620.080;31993.459;   -7.750;37869.043
620.660;33025.633;  -12.711;36868.617
621.241;34821.984;  -10.211;36352.309
621.821;35273.695;  -10.961;35459.520
622.401;33918.762;   -7.720;35207.414
622.980;32745.951;   -8.981;35980.422
623.560;31366.393;   -9.331;37351.328
624.140;30138.846;   -9.850;34388.582
624.720;25129.242;   -7.451;32368.764
625.300;21615.090;   -9.070;32638.629
625.880;25074.404;  -12.601;34599.035
626.459;29414.574;  -11.751;36831.738
627.039;32411.385;   -9.281;38299.098
627.619;32244.357;   -8.801;38289.574
628.198;30600.705;  -12.071;37220.695
628.778;29567.313;   -9.461;37632.563
629.357;30209.564;   -8.491;38003.012
629.937;30465.494;   -9.721;38402.039
630.516;29871.225;   -9.951;37868.801
631.096;29441.900;  -11.731;35760.410
631.675;31966.500;   -8.572;35225.219
632.254;37345.648;  -11.282;35130.289
632.834;36950.086;  -13.322;35794.570
633.413;35148.516;  -10.301;35788.922
633.992;32290.973;   -8.582;34532.863
634.571;32709.656;   -8.352;33590.113
635.151;35215.363;  -11.912;34943.863
635.730;33789.160;  -10.511;35352.523
636.309;30827.996;   -7.731;35366.605
636.888;28515.803;   -9.952;36165.637
637.467;29085.504;  -11.672;37515.902
638.046;30406.688;   -8.901;39288.695
638.625;33189.434;   -7.912;38279.699
639.204;33066.402;  -10.022;37741.598
639.782;32102.793;  -12.252;38364.551
640.361;28172.188;  -10.041;36740.621
640.940;25383.982;  -11.161;34950.082
641.519;26075.641;   -9.701;34137.398
642.097;29093.232;  -11.271;35654.258
642.676;31949.580;   -8.651;35637.957
643.255;32992.160;   -8.711;36567.074
643.833;32213.268;   -9.581;37809.434
644.412;32359.619;  -13.711;37337.293
644.990;31461.092;  -11.811;37018.531
645.569;31432.074;   -9.411;36518.469
646.147;30856.561;  -10.291;36186.430
646.726;30719.783;  -12.401;36267.688
647.304;31533.053;  -10.411;36647.625
647.882;32985.289;   -9.651;39286.742
648.461;34742.430;   -9.631;39157.703
649.039;33014.434;  -11.881;35412.883
649.617;31927.922;   -9.661;34744.918
650.195;31162.842;   -9.301;35403.098
650.773;29764.846;  -10.511;35053.797
651.352;27696.289;  -11.521;33756.816
651.930;25488.209;  -12.211;31868.773
652.508;23727.770;   -9.171;33121.551
653.086;27512.852;   -9.371;33564.793
653.663;30570.867;  -13.161;34054.668
654.241;29348.174;  -13.031;35693.309
654.819;30732.621;   -9.371;36422.906
655.397;30594.750;  -10.511;38213.484
655.975;30180.748;  -10.371;39507.625
656.553;29682.883;  -10.051;39498.223
657.130;28179.273;  -10.061;40395.480
657.708;27654.996;   -9.561;39242.020
658.286;27843.729;  -11.511;38920.020
658.863;28874.232;  -10.261;40202.898
659.441;32137.445;   -7.531;39677.938
660.018;32179.393;   -9.501;40413.355
660.596;30774.250;  -13.301;39931.414
661.173;32374.334;  -11.211;39604.531
661.750;32934.066;   -9.951;39700.070
662.328;32060.309;   -9.390;39292.809
662.905;31076.205;  -11.330;38235.648
663.482;26595.396;   -9.050;36212.305
664.060;24724.281;   -8.240;35944.945
664.637;27650.285;  -10.050;35170.785
665.214;28980.332;  -11.760;34197.523
665.791;30318.875;  -10.530;34549.520
666.368;29401.990;   -9.690;35118.578
666.945;30112.375;   -9.320;36019.418
667.522;31690.223;  -11.860;36048.438
668.099;31457.072;  -10.770;36243.914
668.676;30162.973;   -6.260;35958.875
669.253;28853.545;   -7.000;37384.730
669.830;29030.195;  -10.190;36779.629
670.407;28910.939;   -9.550;35231.289
670.984;29153.176;   -9.260;35544.270
671.560;30052.393;   -9.280;35466.867
672.137;29161.861;  -11.810;34280.863
672.714;30010.059;  -11.490;34632.863
673.290;31101.699;   -7.740;35135.422
673.867;31191.258;  -10.660;36114.480
674.443;30752.143;  -12.230;36152.859
675.020;28763.678;  -10.450;35327.238
675.596;29820.406;   -9.260;35795.176
676.173;30485.889;  -10.780;35430.355
676.749;30162.455;  -13.690;33549.516
677.326;29987.760;  -11.980;32210.012
677.902;29921.809;   -8.630;32068.871
678.478;29361.697;  -10.730;32583.891
679.054;28553.670;  -10.520;32088.928
679.631;28799.523;  -11.920;30978.848
680.207;30030.205;   -7.490;33160.887
680.783;31524.967;   -9.860;35570.363
681.359;30717.713;  -13.380;36125.184
681.935;30535.023;  -12.480;35240.922
682.511;30388.424;   -7.900;34429.961
683.087;30746.172;   -7.710;34463.680
683.663;30057.660;  -11.480;34648.898
684.239;28540.906;  -14.090;34546.457
684.815;27854.877;   -7.560;35586.375
685.390;28022.230;   -9.910;35821.895
685.966;28489.988;  -11.159;35085.871
686.542;31002.797;  -11.169;34198.230
687.118;33257.348;   -5.959;32847.707
687.693;33567.516;  -10.329;32794.027
688.269;33208.289;  -12.059;33072.367
688.844;31521.141;  -10.909;33141.664
689.420;29654.703;   -8.019;33965.742
689.995;27861.342;   -8.399;34655.523
690.571;26407.447;  -10.949;33576.742
691.146;26427.730;   -9.619;32657.219
691.722;26188.174;   -8.999;32526.979
692.297;25925.807;  -11.589;33014.617
692.872;27384.455;  -11.739;34012.254
693.448;27087.541;  -11.059;34237.434
694.023;26101.848;  -10.139;34142.672
694.598;28131.283;   -9.029;34132.031
695.173;28808.352;  -13.319;34205.250
695.748;27793.969;  -10.169;32882.488
696.323;27500.271;   -8.339;32864.906
696.898;27750.631;   -8.169;33170.004
697.473;27965.977;  -12.309;32432.984
698.048;27312.959;  -10.989;31649.303
698.623;27089.795;   -9.329;30778.141
699.198;28576.561;   -9.849;31140.119
699.773;29814.867;  -12.329;31764.299
700.348;28620.908;  -10.389;31780.816
700.922;28533.289;   -9.269;32046.375
701.497;29424.607;   -9.329;32603.574
702.072;29622.699;  -10.789;34799.871
702.646;28297.615;  -10.839;35793.172
703.221;26383.309;   -9.099;35201.590
703.795;28125.088;  -10.939;34764.527
704.370;28461.674;  -12.859;34307.367
704.944;28736.902;  -11.559;33509.887
705.519;29388.510;   -7.939;31388.584
706.093;30645.693;  -10.499;31340.104
706.668;30937.457;  -11.289;32630.281
707.242;29761.691;  -11.509;32728.779
707.816;28522.471;   -9.639;32947.238
708.390;27013.264;  -11.429;33277.855
708.965;27681.029;  -11.869;33834.336
709.539;28123.676;  -11.689;33709.273
710.113;28109.406;  -10.478;33044.313
710.687;27273.402;  -10.228;31953.992
711.261;25661.738;  -13.698;30505.949
711.835;25567.035;  -13.378;30262.369
712.409;26100.393;   -9.698;31254.447
712.983;28012.873;  -11.898;32754.986
713.557;29216.916;  -15.138;34018.824
714.131;29109.949;  -14.098;34579.625
714.704;28146.441;   -9.958;33890.262
715.278;25593.779;  -10.028;33531.102
715.852;24569.297;  -11.148;33601.660
716.425;25761.600;   -9.068;33515.117
716.999;26852.094;  -10.038;33185.555
717.573;27695.818;   -9.798;33905.996
718.146;28694.406;  -12.378;35199.293
718.720;28678.920;  -11.918;35060.551
719.293;28610.973;   -8.088;34973.230
719.867;31610.924;  -10.888;36394.449
720.440;31260.182;  -11.938;36663.008
721.013;29292.012;  -12.818;35102.426
721.587;27700.322;  -10.298;33985.266
722.160;26567.355;  -10.048;33524.965
722.733;25644.766;  -12.108;32987.043
723.306;26032.555;  -10.818;33066.301
723.880;27983.852;   -8.908;33399.500
724.453;29833.180;   -9.878;33468.297
725.026;29046.504;  -11.188;33816.637
725.599;26481.914;  -11.678;32797.996
726.172;26763.412;   -9.618;33187.434
726.745;27965.787;   -8.258;35136.613
727.318;29226.303;  -12.978;35751.730
727.891;29714.906;  -12.148;35890.430
728.463;29154.131;   -8.968;34822.090
729.036;27854.053;  -10.188;32895.086
729.609;28328.732;  -11.788;31823.225
730.182;25552.686;  -11.788;31445.283
730.754;23155.316;  -10.268;32373.223
731.327;23571.410;   -9.998;33676.820
731.900;24160.445;  -12.228;33417.000
732.472;24934.885;  -13.848;31978.498
733.045;26258.342;   -8.698;30368.777
733.617;26293.900;  -10.607;30574.215
734.190;26572.014;  -11.507;31280.975
734.762;24155.639;  -13.647;31674.412
735.334;22355.941;   -9.767;31247.291
735.907;22816.945;   -9.897;29876.211
736.479;22978.578;  -11.637;29808.488
737.051;22554.787;   -9.567;30233.547
737.623;23046.957;   -8.187;31469.086
738.195;23570.270;  -11.187;31784.225
738.768;25816.588;  -12.337;32120.523
739.340;26503.365;  -12.227;32094.342
739.912;25481.963;  -11.057;31312.680
740.484;24090.182;  -10.207;31946.238
741.056;22623.396;  -10.047;32984.059
741.628;23754.244;  -13.627;33897.715
742.199;25842.781;   -7.177;33213.016
742.771;24712.928;  -10.797;31369.113
743.343;22731.504;  -11.997;31865.473
743.915;21757.678;  -12.867;32388.631
744.487;21697.961;   -7.617;31079.568
745.058;21660.828;   -9.557;30570.107
745.630;22275.799;   -9.877;29970.127
746.201;23496.814;  -14.177;29186.766
746.773;24100.281;   -9.237;28805.723
747.344;23886.045;   -9.847;29591.223
747.916;22135.295;  -11.657;31412.201
748.487;22241.131;  -10.587;32194.898
749.059;23628.008;   -8.707;32533.719
749.630;24475.475;  -10.537;32158.518
750.201;23657.096;  -11.687;30855.395
750.773;21897.955;  -11.647;28622.555
751.344;21579.043;   -7.147;28405.732
751.915;22396.102;   -9.757;28461.551
752.486;22355.535;  -12.427;27842.850
753.057;20483.287;  -12.227;27845.008
753.628;19362.705;  -10.417;27728.107
754.199;20256.441;  -11.767;27381.086
754.770;21284.205;  -11.187;25882.203
755.341;21548.863;  -10.507;25886.184
755.912;21566.889;   -9.387;26050.861
756.483;20996.998;  -10.647;26798.779
757.054;19190.246;  -11.837;27048.238
757.625;17782.084;  -12.716;26294.838
758.195;17686.943;   -9.666;26142.076
758.766;17456.502;   -8.656;26392.234
759.337;18025.740;  -12.856;26334.594
759.907;19536.072;  -13.366;27579.652
760.478;20423.387;   -8.576;28352.770
761.048;19785.629;  -10.526;27325.088
761.619;18755.365;  -11.116;26460.428
762.189;18908.854;  -12.136;26029.826
762.760;20083.340;   -9.456;26430.145
763.330;21153.738;   -7.136;26670.902
763.900;20637.344;  -11.786;26603.021
764.471;18184.402;  -11.546;25542.740
765.041;16769.738;   -8.096;24358.459
765.611;16590.373;   -8.876;23991.297
766.181;16917.971;  -12.196;24470.236
766.751;18087.184;  -11.636;24845.975
767.321;17878.195;  -10.156;24533.633
767.891;15797.786;  -11.766;24916.492
768.461;15187.677;  -14.936;24776.771
769.031;15720.600;  -12.356;24757.988
769.601;17363.434;   -7.526;24181.088
770.171;17409.742;  -10.766;23670.387
770.741;16572.775;  -13.176;22960.045
771.311;16671.725;  -10.616;22917.523
771.880;17193.061;   -9.576;23562.941
772.450;17105.225;  -10.336;24216.500
773.020;17129.686;  -13.516;24140.398
773.589;16392.025;  -13.466;24414.857
774.159;15776.995;   -8.686;23858.717
774.729;15413.080;   -9.476;22942.135
775.298;14975.551;  -13.666;22324.033
775.867;14517.615;  -11.716;21140.313
776.437;14674.442;   -9.906;20838.092
777.006;14438.135;  -12.166;20599.510
777.576;14068.464;  -12.356;20508.809
778.145;14077.877;  -11.646;20732.947
778.714;14162.464;   -8.226;21062.465
779.283;13646.527;   -9.556;20949.664
779.853;13136.818;  -14.116;20508.623
780.422;13505.381;  -11.506;20649.082
780.991;13127.438;   -9.556;21527.520
781.560;11872.166;   -9.095;22632.658
782.129;11662.203;  -12.135;23048.277
782.698;11661.689;  -10.865;23438.555
783.267;11273.173;   -9.335;23267.734
783.836;11194.199;  -11.045;22415.133
784.404;12187.206;  -13.865;20443.152
784.973;12860.545;  -13.095;19699.150
785.542;12963.140;  -11.575;19763.828
786.111;12820.400;   -9.705;20341.408
786.679;12297.626;  -12.105;20207.967
787.248;11992.826;  -12.455;19516.465
787.817;11797.403;  -11.535;18900.363
788.385;11455.021;   -9.765;17879.121
788.954;10901.305;  -14.005;17658.301
789.522;10262.643;  -11.955;17788.879
790.090;10633.432;  -10.135;18118.277
790.659;11214.729;  -10.975;18338.736
791.227;10855.728;  -13.375;18508.615
791.795;11213.838;  -12.375;17898.254
792.364;11467.999;  -10.725;17295.133
792.932;11745.772;   -9.715;16822.051
793.500;12055.686;  -12.675;17040.148
794.068;12326.932;  -13.495;17179.787
794.636;12471.747;  -10.885;16664.246
795.204;11885.155;  -11.045;16524.545
795.772;11867.369;  -13.175;17274.564
796.340;11363.058;  -12.445;17891.002
796.908;11122.246;   -9.735;17648.561
797.476;11030.167;   -9.815;17064.080
798.044;10662.316;  -13.985;16672.777
798.612; 9943.541;  -13.115;17023.996
799.180; 9532.771;  -10.185;16561.615
799.747; 9356.902;   -9.055;15962.773
800.315; 9074.384;  -12.385;15296.992
800.883; 8855.441;  -15.035;14801.771
801.450; 9000.449;  -10.365;14534.430
802.018; 9091.609;   -9.855;14173.248
802.585; 9105.387;  -11.905;14029.547
803.153; 9141.325;  -11.585;13836.846
803.720; 8978.068;   -9.095;13567.324
804.287; 8453.270;   -9.135;13360.622
804.855; 7955.311;  -11.604;13681.981
805.422; 7844.144;  -11.794;13536.560
805.989; 7911.475;  -10.734;13355.958
806.556; 8138.697;  -10.444;13747.896
807.124; 8421.989;  -12.764;13987.376
807.691; 8367.979;  -12.964;14038.674
808.258; 8167.650;  -11.134;14120.152
808.825; 7800.234;   -9.854;13860.111
809.392; 7891.209;  -10.504;13268.790
809.959; 7480.213;  -13.054;12680.389
810.526; 7032.464;   -8.294;12427.308
811.093; 7012.915;   -8.394;12030.105
811.659; 7587.100;  -12.304;11653.664
812.226; 8141.431;  -13.944;11637.183
812.793; 7890.176;  -10.484;11611.521
813.360; 7239.507;  -10.144;11885.181
813.926; 6921.753;  -11.684;12770.539
814.493; 6739.657;  -13.644;12677.638
815.060; 6380.852;   -9.724;11974.336
815.626; 6348.174;   -9.854;11594.715
816.193; 6691.694;  -13.254;11579.474
816.759; 6723.397;  -13.204;11666.972
817.325; 6772.801;   -9.434;11325.530
817.892; 7138.592;  -10.134;11105.369
818.458; 7567.507;  -13.474;10843.928
819.024; 7187.676;  -11.854;10714.406
819.591; 6868.521;  -10.244;10469.165
820.157; 6691.840;  -10.704;10235.523
820.723; 6229.118;  -12.324;10847.563
821.289; 5948.578;   -9.444;11040.980
821.855; 5863.137;   -8.374;10357.100
822.421; 5791.023;  -10.234; 9978.918
822.987; 5730.823;  -13.294; 9754.177
823.553; 5378.262;  -10.884;10065.755
824.119; 5185.678;   -8.884;10036.294
824.685; 5307.815;   -6.784;10029.192
825.251; 5433.582;  -12.004;10199.230
825.816; 5391.394;  -11.474; 9820.189
826.382; 5115.846;   -9.174; 9297.248
826.948; 5270.104;   -9.214; 9381.347
827.513; 5660.073;  -10.774; 9450.726
828.079; 5529.310;  -11.924; 9472.444
828.645; 4962.103;  -10.543; 9292.643
829.210; 4806.869;  -10.533; 9065.341
829.776; 4777.797;  -10.753; 9132.620
830.341; 4657.285;  -10.173; 9092.878
830.906; 4798.299;  -10.743; 9078.557
831.472; 5116.461;  -11.113; 8534.535
832.037; 4916.928;  -10.603; 8677.874
832.602; 4412.196;  -13.323; 8628.692
833.167; 4164.826;  -10.823; 8879.031
833.733; 4113.436;  -10.113; 9189.790
834.298; 4237.951;  -13.583; 9052.608
834.863; 4356.136;  -12.703; 8895.087
835.428; 4365.233;  -10.523; 8824.266
835.993; 4232.985;   -6.963; 8845.385
836.558; 4089.223;  -10.763; 8888.563
837.123; 4172.809;   -9.903; 8966.582
837.688; 4409.897;   -9.913; 8617.860
838.253; 4639.638;  -10.283; 8590.699
838.817; 4800.034;  -12.963; 8443.797
839.382; 4710.348;  -14.243; 8799.356
839.947; 4421.499;  -10.733; 8810.595
840.511; 4133.792;   -9.383; 8796.394
841.076; 3770.264;  -12.563; 8347.231
841.641; 3833.199;  -12.953; 8224.330
842.205; 3938.894;   -7.043; 8223.349
842.770; 3980.229;   -8.163; 8622.107
843.334; 4116.643;  -12.503; 8410.386
843.898; 4092.532;  -11.693; 8337.465
844.463; 4090.190;  -10.203; 8506.283
845.027; 3883.779;   -9.533; 8280.962
845.591; 3711.204;  -13.443; 8231.141
846.156; 3702.481;  -13.143; 7969.179
846.720; 3614.470;   -9.433; 7768.278
847.284; 3516.188;  -11.033; 7630.957
847.848; 3382.808;  -10.403; 7472.395
848.412; 3280.181;  -11.553; 7437.394
848.976; 3299.844;   -8.393; 7674.592
849.540; 3222.182;   -8.713; 7836.011
850.104; 3281.334;  -12.463; 7913.669
850.668; 3618.211;  -12.973; 7694.508
851.232; 3769.410;  -10.793; 7756.887
851.796; 3642.891;  -10.662; 7926.545
852.359; 3332.904;  -13.082; 7827.844
852.923; 3160.772;  -12.192; 7641.163
853.487; 3028.189;  -11.912; 7342.501
854.050; 3004.526;  -10.892; 7042.820
854.614; 3113.502;  -13.992; 7151.338
855.177; 3204.633;  -11.732; 7105.077
855.741; 3244.028;   -8.962; 6989.675
856.304; 3162.067;   -9.442; 6596.634
856.868; 3143.142;  -14.192; 6356.272
857.431; 3276.477;  -12.702; 6468.571
857.995; 3423.755;   -9.942; 6373.210
858.558; 3460.270;   -9.112; 6324.448
859.121; 3204.365;  -12.932; 6408.327
859.684; 3025.262;  -13.442; 6347.886
860.247; 3110.881;  -10.632; 6321.264
860.810; 3123.430;  -11.272; 6301.903
861.374; 2881.980;   -9.832; 6607.881
861.937; 2625.817;  -11.762; 6408.200
862.500; 2625.254;   -9.722; 6572.639
863.062; 2768.658;  -10.512; 6387.297
863.625; 2892.646;  -11.232; 6190.836
864.188; 3046.661;  -14.112; 5807.254
864.751; 3139.456;  -11.302; 5682.413
865.314; 3059.499;  -10.112; 5547.492
865.876; 2853.689;  -12.182; 5500.150
866.439; 2825.620;  -10.722; 5415.909
867.002; 2787.472;   -9.252; 5501.567
867.564; 2604.921;   -9.572; 5413.946
868.127; 2393.428;  -13.142; 5160.325
868.689; 2269.493;  -12.902; 5133.183
869.252; 2158.516;   -9.732; 5252.382
869.814; 2054.156;   -9.432; 5297.141
870.377; 2062.857;  -11.552; 5390.919
870.939; 2131.106;   -9.052; 5599.898
871.501; 2202.219;  -10.982; 5248.336
872.063; 2210.564;  -12.292; 4854.235
872.626; 2154.188;  -14.912; 4817.074
873.188; 2149.565;  -13.112; 4987.732
873.750; 2127.418;  -13.442; 4868.651
874.312; 2059.909;   -9.402; 4779.330
874.874; 1984.622;  -11.062; 4866.348
875.436; 1901.824;  -13.931; 4718.887
875.998; 1889.945;   -9.561; 4660.005
876.560; 1915.832;  -11.321; 4462.964
877.122; 1856.183;  -12.221; 4145.042
877.683; 1756.923;  -12.191; 4056.481
878.245; 1677.988;  -12.101; 3950.740
878.807; 1716.869;   -8.971; 4058.958
879.369; 1739.944;  -12.071; 3954.677
879.930; 1652.071;  -14.621; 3941.495
880.492; 1589.950;  -10.311; 4067.014
881.053; 1556.218;  -10.901; 3859.633
881.615; 1458.093;  -14.411; 3776.071
882.176; 1362.786;  -13.761; 3734.750
882.738; 1315.850;   -9.181; 3678.489
883.299; 1293.987;  -11.791; 3405.407
883.860; 1286.102;  -13.121; 3351.106
884.422; 1271.635;  -11.211; 3394.044
884.983; 1226.570;  -10.091; 3166.443
885.544; 1153.731;   -8.461; 3189.802
886.105; 1081.191;  -12.361; 3160.360
886.666; 1019.748;  -14.141; 3093.059
887.227;  963.517;  -11.361; 2941.957
887.788;  905.553;  -11.401; 2974.836
888.349;  840.739;  -13.791; 2721.214
888.910;  835.702;  -13.191; 2696.493
889.471;  839.937;   -9.881; 2560.172
890.032;  821.420;   -9.881; 2558.190
890.593;  793.635;  -10.371; 2567.669
891.153;  770.144;  -13.301; 2460.307
891.714;  724.563;  -11.431; 2372.046
892.275;  688.133;  -11.291; 2309.505
892.835;  653.210;  -11.471; 2382.543
893.396;  601.735;  -11.541; 2295.502
893.956;  543.650;  -11.181; 2162.420
894.517;  504.653;  -11.741; 2125.439
895.077;  499.613;  -11.671; 2086.978
895.638;  501.135;  -11.311; 2126.316
896.198;  476.844;   -9.831; 1838.275
896.758;  434.503;   -8.421; 1892.813
897.319;  404.630;  -12.351; 1792.232
897.879;  389.651;  -13.511; 1762.751
898.439;  364.924;  -12.001; 1661.149
898.999;  340.518;  -10.180; 1781.468
899.559;  330.913;  -12.030; 1703.347
900.119;  324.637;  -15.710; 1537.525
900.679;  320.819;   -8.900; 1638.384
901.239;  308.332;   -8.340; 1527.902
901.799;  299.091;  -13.910; 1456.441
902.359;  292.742;  -13.460; 1357.140
902.919;  284.719;  -11.490; 1331.118
903.479;  272.971;  -12.110; 1317.257
904.038;  253.968;  -11.720; 1262.595
904.598;  239.067;  -13.610; 1152.034
905.158;  235.826;  -11.040; 1240.893
905.717;  228.730;  -10.900; 1233.691
906.277;  218.951;  -15.080; 1217.330
906.836;  209.220;  -13.380; 1222.408
907.396;  201.524;  -10.780; 1193.047
907.955;  194.423;   -8.500; 1182.526
908.515;  188.614;  -12.760; 1099.364
909.074;  182.891;  -11.900; 1092.863
909.633;  177.854;   -8.950; 1069.121
910.192;  174.233;   -8.770; 1196.460
910.752;  168.169;  -12.390; 1029.960
911.311;  163.569;  -13.680; 1009.780
911.870;  162.079;  -12.370;  971.460
912.429;  163.114;  -10.900; 1094.080
912.988;  162.423;  -11.690; 1081.060
913.547;  157.669;  -13.240;  940.380
914.106;  153.088;  -11.990;  999.420
914.665;  149.824;   -9.990;  984.020
915.224;  149.574;  -12.880; 1035.760
915.782;  148.851;  -12.350;  922.560
916.341;  148.070;   -9.110; 1049.840
916.900;  144.228;   -9.270;  925.260
917.458;  142.387;  -13.240;  884.220
918.017;  141.859;  -13.550;  942.600
918.576;  142.211;  -12.320;  904.440
919.134;  140.499;  -11.490;  837.980
919.693;  138.464;  -13.670;  893.060
920.251;  137.184;  -15.470;  876.500
920.809;  135.376;  -11.290;  839.580
921.368;  135.214;  -10.210;  885.360
921.926;  133.844;  -12.140;  842.940
922.484;  132.912;  -13.080;  903.360
923.042;  132.755;  -11.720;  880.340
923.601;  135.749;   -7.480;  998.680
924.159;  133.601;  -11.570;  935.560
924.717;  130.858;  -13.840;  841.080
925.275;  130.139;  -10.640;  903.240
925.833;  129.955;  -11.540;  779.320
926.391;  131.191;  -12.960;  938.380
926.949;  128.920;  -14.130;  857.680
927.506;  129.320;  -11.750;  903.500
928.064;  129.344;  -10.250;  877.580
928.622;  129.081;  -13.030;  880.100
929.180;  128.381;  -13.400;  814.180
929.737;  129.757;  -10.700;  808.540
930.295;  133.080;  -10.070;  928.480
930.853;  135.022;  -11.960;  849.100
931.410;  135.341;  -13.120;  821.120
931.968;  134.762;  -10.770;  940.660
932.525;  133.822;  -10.680;  909.380
933.082;  134.440;  -13.130;  811.440
933.640;  136.189;  -13.210;  925.900
934.197;  134.231;  -11.060;  886.360
934.754;  135.213;   -9.580;  897.780
935.312;  137.962;  -14.000;  863.340
935.869;  141.752;  -10.710; 1012.980
936.426;  141.636;   -9.860;  872.800
936.983;  143.682;   -9.710;  889.020
937.540;  142.673;  -13.990;  838.280
938.097;  141.183;  -14.040;  940.120
938.654;  141.936;  -10.310;  898.860
939.211;  144.302;  -10.560;  952.480
939.768;  147.402;  -13.900;  915.420
940.324;  151.064;  -14.760;  904.200
940.881;  152.336;  -10.370;  878.500
941.438;  153.132;   -8.260; 1021.200
941.995;  149.030;  -12.540;  992.560
942.551;  146.900;  -14.670;  875.620
943.108;  146.080;  -10.450;  937.920
943.664;  148.997;  -10.750;  869.340
944.221;  152.241;  -11.550; 1088.140
944.777;  149.371;  -14.770;  869.680
945.334;  150.130;  -12.820;  884.840
945.890;  151.546;  -10.130;  946.480
946.446;  151.456;  -13.470;  947.020
947.003;  153.410;  -12.120;  964.940
947.559;  155.870;   -9.980; 1063.040
948.115;  155.068;   -9.080; 1026.540
948.671;  154.428;  -10.830;  967.300
949.227;  152.173;  -12.440;  859.560
949.783;  150.292;  -12.910;  858.900
950.339;  152.020;  -10.270;  991.000
950.895;  150.629;  -13.630; 1023.840
951.451;  150.220;  -15.100;  925.280
952.007;  149.650;  -11.330;  998.540
952.563;  149.087;  -10.580;  937.780
953.118;  147.481;  -13.440;  904.940
953.674;  147.015;  -12.710;  935.780
954.230;  146.315;  -10.350;  949.640
954.785;  144.947;   -9.190;  936.640
955.341;  142.907;  -11.200;  998.160
955.897;  141.810;  -16.560;  834.660
956.452;  142.794;  -12.570;  953.840
957.008;  142.510;   -7.970; 1083.640
957.563;  140.536;  -11.940; 1009.540
958.118;  135.772;  -13.450;  877.700
958.674;  136.348;  -12.030;  946.780
959.229;  137.163;   -9.410; 1013.980
959.784;  135.561;  -12.000;  832.400
960.339;  135.257;  -14.780; 1001.280
960.894;  131.339;   -9.860;  963.760
961.449;  127.350;   -9.970;  859.960
962.004;  127.495;  -10.900; 1212.840
962.559;  122.015;  -13.150;  860.140
963.114;  119.479;  -13.740;  742.480
963.669;  118.379;   -9.820;  915.500
964.224;  117.143;  -13.890;  874.340
964.779;  116.125;  -12.600;  828.420
965.334;  117.008;  -10.950; 1017.860
965.888;  116.416;  -11.170;  875.360
966.443;  119.033;  -12.540;  972.380
966.998;  118.623;  -15.780;  819.460
967.552;  118.837;   -9.760;  908.380
968.107;  114.388;   -9.060;  868.300
968.661;  115.326;  -11.950;  922.440
969.216;  116.376;  -12.800;  856.280
969.770;  116.125;  -11.210;  917.200
970.324;  115.001;  -11.610;  923.140
970.879;  112.093;  -11.370;  947.180
971.433;  108.348;  -12.540;  952.720
971.987;  103.596;  -11.320;  895.340
972.541;  100.958;  -10.720;  917.100
973.095;  100.375;   -9.680; 1009.460
973.649;   99.034;  -11.440;  809.480
974.203;   98.383;  -11.210;  829.040
974.757;   97.699;  -10.240;  855.220
975.311;   97.654;  -13.720;  872.600
975.865;   97.669;  -13.770;  881.820
976.419;   96.335;  -11.690;  857.400
976.973;   96.205;   -9.510;  849.620
977.526;   97.180;  -12.620;  949.920
978.080;   96.212;  -12.010;  796.780
978.634;   97.765;  -10.170;  921.320
979.187;   94.984;   -9.020;  905.400
979.741;   93.746;   -9.820; 1018.380
980.294;   88.752;  -14.870;  789.160
980.848;   86.730;  -12.380;  717.220
981.401;   88.350;  -10.350;  816.540
981.955;   90.660;  -13.720;  844.300
982.508;   89.648;  -11.490;  746.340
983.061;   89.950;  -10.000;  915.260
983.615;   85.488;  -11.480;  798.800
984.168;   83.788;  -13.220;  770.080
984.721;   83.742;  -13.960;  880.760
985.274;   81.904;  -10.870;  867.500
985.827;   80.759;   -9.790;  834.220
986.380;   78.356;  -13.120;  721.340
986.933;   77.819;  -12.450;  864.800
987.486;   76.809;  -10.210;  861.920
988.039;   75.119;   -8.430;  863.100
988.591;   73.503;  -10.520;  893.260
989.144;   70.572;  -14.860;  737.260
989.697;   70.204;  -13.080;  758.740
990.250;   70.586;  -10.150;  858.100
990.802;   69.451;  -13.430;  755.860
991.355;   70.547;  -12.750;  974.880
991.907;   67.913;  -12.040;  864.320
992.460;   65.280;  -11.330;  753.760
993.012;   65.369;  -13.610;  749.540
993.565;   63.697;  -13.460;  711.360
994.117;   66.361;   -9.360;  950.780
994.669;   61.973;  -11.300;  701.320
995.221;   60.569;  -13.540;  791.920
995.774;   58.835;  -13.430;  787.580
996.326;   57.565;  -12.520;  740.220
996.878;   58.221;  -10.950;  838.420
997.430;   54.719;  -14.300;  699.860
997.982;   54.280;  -13.760;  750.140
998.534;   54.245;  -11.530;  739.060
999.086;   53.036;  -10.310;  738.220
999.638;   51.075;  -12.530;  661.380
1000.190;   51.118;  -11.840;  699.320
1000.741;   49.733;  -10.260;  742.700
1001.293;   50.584;   -8.860;  686.020
1001.845;   49.166;  -13.700;  676.640
1002.396;   48.620;  -12.100;  743.400
1002.948;   48.826;  -12.760;  737.400
1003.500;   46.838;  -10.380;  723.780
1004.051;   47.396;  -11.900;  907.580
1004.603;   46.316;  -12.250;  791.820
1005.154;   42.413;  -13.210;  608.980
1005.705;   41.163;  -10.950;  723.960
1006.257;   41.202;  -13.880;  707.220
1006.808;   40.677;  -12.840;  685.460
1007.359;   40.011;  -10.570;  763.240
1007.910;   38.603;   -9.620;  646.640
1008.461;   38.863;  -13.630;  732.940
1009.013;   37.763;  -17.200;  588.340
1009.564;   38.349;  -10.200;  793.520
1010.115;   36.992;  -12.570;  597.040
1010.665;   36.589;  -15.150;  602.160
1011.216;   36.832;  -14.480;  667.920
1011.767;   36.172;  -11.340;  697.920
1012.318;   35.640;   -9.780;  736.980
1012.869;   35.406;  -12.380;  679.000
1013.419;   34.382;  -15.560;  603.120
1013.970;   34.849;  -11.010;  666.640
1014.521;   33.834;  -11.610;  620.620
1015.071;   33.843;  -13.450;  670.380
1015.622;   34.299;  -13.870;  635.460
1016.172;   33.523;  -11.610;  596.820
1016.723;   32.625;  -12.120;  614.380
1017.273;   33.226;  -13.620;  604.160
1017.823;   33.506;  -14.140;  650.340
1018.374;   32.341;  -12.800;  611.760
1018.924;   32.797;  -12.340;  716.880
1019.474;   32.167;  -11.410;  718.880
1020.024;   31.562;  -14.770;  657.580
1020.574;   31.959;   -9.780;  726.160
1021.124;   32.013;   -8.560;  673.580
1021.674;   30.655;  -15.190;  559.120
1022.224;   31.942;  -13.530;  708.940
1022.774;   31.061;  -13.280;  668.820
1023.324;   31.014;  -10.690;  753.520
1023.874;   32.787;  -10.240;  875.760
1024.423;   30.078;  -12.540;  613.700
1024.973;   29.857;  -10.010;  610.760
1025.523;   29.359;  -10.550;  620.960
1026.072;   28.324;  -13.560;  606.420
1026.622;   28.825;  -15.120;  675.740
1027.172;   29.940;  -11.260;  715.660
1027.721;   28.559;  -11.410;  601.220
1028.270;   28.688;  -13.530;  663.400
1028.820;   29.305;  -13.680;  638.080
1029.369;   29.092;  -13.520;  612.700
1029.918;   27.534;  -10.980;  649.840
1030.468;   27.997;  -13.530;  564.780
1031.017;   27.744;  -13.170;  634.800
1031.566;   27.124;  -12.200;  608.900
1032.115;   27.270;   -9.960;  694.500
1032.664;   26.409;  -13.210;  596.480
1033.213;   27.263;  -12.500;  735.420
1033.762;   26.482;  -11.910;  635.620
1034.311;   26.466;   -9.640;  677.220
1034.860;   27.109;  -13.310;  691.000
1035.408;   26.684;  -11.830;  722.720
1035.957;   26.918;  -12.000;  719.540
1036.506;   24.924;  -11.690;  530.800
1037.055;   27.306;  -10.990;  844.320
1037.603;   25.491;  -15.120;  664.000
1038.152;   24.273;  -12.450;  534.760
1038.700;   24.661;  -10.560;  585.740
1039.249;   25.032;  -11.080;  681.220
1039.797;   25.454;  -12.540;  633.360
1040.345;   24.954;  -11.920;  705.420
1040.894;   24.006;  -11.410;  625.300
1041.442;   23.778;  -14.320;  632.200
1041.990;   23.013;  -16.240;  559.160
1042.538;   23.039;  -11.680;  536.180
1043.087;   23.345;  -10.760;  570.860
1043.635;   24.313;  -11.850;  670.500
1044.183;   22.742;  -15.480;  586.400
1044.731;   22.224;  -11.770;  576.000
1045.279;   22.928;  -13.090;  674.920
1045.827;   25.001;  -12.440;  892.400
1046.374;   22.032;  -13.840;  515.420
1046.922;   21.455;  -13.220;  590.580
1047.470;   22.847;  -10.230;  691.300
1048.018;   22.491;  -14.590;  647.960
1048.565;   23.014;  -12.050;  708.600
1049.113;   21.303;  -11.650;  557.000
1049.660;   21.310;  -10.510;  629.660
1050.208;   21.870;  -13.310;  675.640
1050.755;   21.502;  -15.900;  606.580
1051.303;   21.886;  -11.430;  686.820
1051.850;   20.894;   -8.480;  635.120
1052.397;   19.380;  -15.010;  473.960
1052.945;   19.301;  -13.960;  617.760
1053.492;   21.521;  -13.150;  741.840
1054.039;   21.578;   -9.630;  720.180
1054.586;   19.684;  -13.680;  557.240
1055.133;   20.358;  -14.570;  693.140
1055.680;   20.113;  -13.820;  646.620
1056.227;   19.734;  -11.730;  542.780
1056.774;   21.008;  -12.480;  794.980
1057.321;   18.948;  -13.930;  523.260
1057.868;   19.708;  -11.690;  651.320
1058.415;   19.089;   -9.520;  651.980
1058.961;   19.876;  -13.160;  678.940
1059.508;   19.045;  -12.920;  643.820
1060.055;   19.428;  -11.920;  581.780
1060.601;   19.558;  -11.500;  624.300
1061.148;   19.303;  -14.330;  616.820
1061.694;   18.444;  -16.870;  592.580
1062.241;   17.927;  -10.330;  596.320
1062.787;   19.224;  -10.620;  663.140
1063.334;   20.407;  -10.110;  808.560
1063.880;   18.087;  -13.400;  668.360
1064.426;   18.545;  -10.680;  706.820
1064.972;   17.002;   -9.920;  601.340
1065.518;   16.532;  -10.980;  566.640
1066.065;   17.603;  -14.890;  624.460
1066.611;   17.382;  -12.870;  598.800
1067.157;   17.750;  -12.950;  641.860
1067.703;   17.368;  -13.540;  668.480
1068.249;   17.563;  -13.540;  605.220
1068.794;   16.883;  -12.600;  626.880
1069.340;   15.952;  -10.620;  578.960
1069.886;   16.973;  -12.830;  590.700
1070.432;   15.342;  -14.870;  541.720
1070.977;   16.055;  -11.980;  601.080
1071.523;   16.504;   -8.200;  573.060
1072.068;   15.826;  -12.330;  582.000
1072.614;   15.995;  -16.370;  527.760
1073.160;   16.087;  -11.100;  687.040
1073.705;   15.101;  -10.480;  572.520
1074.250;   15.402;  -14.520;  559.900
1074.796;   16.462;  -11.460;  655.160
1075.341;   16.252;  -11.950;  664.100
1075.886;   15.603;  -11.460;  594.240
1076.431;   14.134;  -13.770;  649.880
1076.976;   14.982;  -12.680;  639.220
1077.521;   14.154;  -13.170;  583.080
1078.067;   14.241;  -10.860;  579.400
1078.612;   14.991;  -13.920;  661.620
1079.156;   15.301;  -13.880;  601.540
1079.701;   14.962;  -13.120;  693.260
1080.246;   15.016;   -9.940;  696.300
1080.791;   14.270;  -14.740;  625.020
1081.336;   14.489;  -13.750;  659.320
1081.880;   14.657;  -13.400;  649.680
1082.425;   14.040;  -12.220;  573.480
1082.970;   15.018;  -11.610;  717.040
1083.514;   14.034;  -13.580;  597.000
1084.059;   12.865;  -12.810;  586.720
1084.603;   12.373;  -12.320;  565.840
1085.147;   12.800;  -13.190;  645.220
1085.692;   14.428;  -12.480;  716.800
1086.236;   12.076;  -13.020;  503.140
1086.780;   14.706;   -9.190;  751.440
1087.325;   12.960;  -12.480;  654.620
1087.869;   13.612;  -12.450;  610.700
1088.413;   13.859;  -12.240;  705.040
1088.957;   11.101;   -9.020;  543.400
1089.501;   13.066;  -10.320;  766.640
1090.045;   12.246;  -12.720;  726.480
1090.589;   10.810;  -13.690;  569.920
1091.133;   12.364;  -10.020;  673.340
1091.676;   11.954;  -12.330;  591.940
1092.220;   11.474;  -14.970;  600.920
1092.764;   12.788;  -12.430;  706.960
1093.307;   11.896;   -9.800;  673.780
1093.851;   10.202;  -14.970;  556.540
1094.395;   11.271;  -15.310;  683.140
1094.938;   11.566;  -10.370;  632.520
1095.482;   10.898;  -11.050;  559.800
1096.025;   11.786;  -11.840;  710.880
1096.568;   12.150;  -12.840;  779.280
1097.112;    9.209;  -14.700;  508.180
1097.655;   11.006;   -8.720;  603.000
1098.198;    9.284;  -13.610;  600.180
1098.741;   10.105;  -13.350;  612.860
1099.285;   10.837;  -11.230;  657.300
1099.828;    8.751;  -11.840;  439.400
1100.371;   10.908;  -10.840;  608.160
1100.914;    9.974;  -14.190;  682.660
1101.457;    9.837;  -11.240;  679.900
1101.999;    9.214;  -11.270;  584.680
1102.542;    9.408;  -11.480;  641.440
1103.085;    9.679;  -11.750;  658.500
1103.628;   10.001;  -11.400;  762.060
1104.170;    8.653;  -10.490;  588.280
1104.713;    9.457;  -10.600;  646.700
1105.256;    9.445;  -14.360;  557.440
1105.798;    7.997;  -13.210;  499.980
1106.341;    9.988;  -10.270;  728.900
1106.883;    8.945;  -12.200;  521.340
1107.425;    8.475;  -13.110;  668.180
1107.968;    7.872;  -12.840;  612.380
1108.510;    9.189;   -6.480;  684.960
1109.052;    7.558;  -13.940;  612.620
1109.594;    8.157;  -13.690;  554.440
1110.136;    9.121;  -11.880;  643.220
1110.679;    7.373;   -9.500;  633.080
1111.221;    8.552;  -14.160;  604.460
1111.763;    7.404;  -13.980;  559.220
1112.304;    7.382;  -13.880;  547.140
1112.846;    7.930;  -12.210;  666.240
1113.388;   10.333;  -11.390;  942.180
1113.930;    7.737;  -14.540;  694.200
1114.472;    6.945;  -12.640;  606.540
1115.013;    5.283;  -11.620;  551.280
1115.555;    6.026;  -13.640;  587.100
1116.097;    6.462;  -15.380;  579.480
1116.638;    7.193;  -12.640;  684.600
1117.180;    7.251;   -9.850;  667.740
1117.721;    7.363;  -13.690;  568.580
1118.262;    8.002;  -12.680;  677.960
1118.804;    7.857;  -12.530;  637.340
1119.345;    5.427;  -11.690;  578.400
1119.886;    6.635;  -13.380;  704.040
1120.427;    5.991;  -14.070;  589.020
1120.969;    6.032;  -13.500;  597.920
1121.510;    4.918;  -11.480;  563.060
1122.051;    6.355;  -12.830;  723.580
1122.592;    5.550;  -14.290;  655.420
1123.133;    5.280;  -12.400;  547.940
1123.673;    6.104;  -10.130;  706.480
1124.214;    4.790;  -12.930;  612.460
1124.755;    6.307;  -14.380;  639.460
1125.296;    5.992;  -14.000;  627.320
1125.836;    5.904;  -10.070;  691.500
1126.377;    4.954;  -12.640;  599.660
1126.918;    5.051;  -12.960;  614.980
1127.458;    4.918;  -13.350;  622.220
1127.999;    5.532;  -10.750;  656.980
1128.539;    5.823;  -12.350;  694.240
1129.079;    5.134;  -14.860;  632.720
1129.620;    4.206;  -13.840;  558.100
1130.160;    4.512;  -12.330;  539.480
1130.700;    4.061;  -14.530;  640.840
1131.240;    5.685;  -12.530;  643.700
1131.781;    4.414;  -14.450;  619.680
1132.321;    3.581;   -9.790;  599.120
1132.861;    3.038;  -14.860;  564.200
1133.401;    3.498;  -14.290;  593.940
1133.941;    3.809;  -11.750;  626.280
1134.481;    3.791;   -9.920;  597.580
1135.020;    3.013;  -12.290;  609.160
1135.560;    4.080;  -11.650;  674.940
1136.100;    2.879;  -16.270;  501.160
1136.640;    2.284;  -10.890;  510.480
1137.179;    2.577;  -14.180;  537.960
1137.719;    3.239;  -16.250;  605.400
1138.258;    3.312;  -14.230;  587.360
1138.798;    3.606;   -9.090;  663.780
1139.337;    2.163;  -15.130;  482.840
1139.877;    3.521;  -13.680;  642.360
1140.416;    5.033;  -11.320;  878.060
1140.955;    2.667;  -10.860;  535.380
1141.494;    2.133;  -12.920;  669.280
1142.034;    2.560;  -13.930;  583.520
1142.573;    3.744;  -11.440;  646.280
1143.112;    2.350;  -12.000;  553.480
1143.651;    2.345;  -13.670;  536.480
1144.190;    3.119;  -12.730;  691.640
1144.729;    1.672;  -14.560;  607.420
1145.267;    2.005;  -11.830;  584.900
1145.806;    2.493;  -12.230;  637.040
1146.345;    1.748;  -14.130;  635.020
1146.884;    1.892;  -11.590;  622.500
1147.422;    1.406;  -12.550;  533.060
1147.961;    3.155;  -11.180;  708.460
1148.500;    2.316;  -11.510;  669.720
1149.038;    3.350;  -11.640;  632.500
1149.577;    2.709;  -10.130;  698.640
1150.115;   -0.573;  -13.970;  452.280
1150.653;    2.452;  -14.520;  607.340
1151.192;    0.633;  -12.810;  552.920
1151.730;    1.982;   -9.100;  652.560
1152.268;    1.024;  -12.220;  589.520
1152.806;    1.339;  -14.140;  571.180
1153.344;   -0.383;  -12.350;  577.640
1153.882;    1.136;   -8.980;  600.060
1154.421;   -0.336;  -15.190;  470.620
1154.958;    0.428;  -15.210;  595.240
1155.496;    1.114;  -12.850;  645.280
1156.034;    0.944;   -9.940;  721.880
1156.572;    1.727;  -13.570;  667.060
1157.110;    0.179;  -14.590;  473.940
1157.647;    1.545;  -13.030;  676.960
1158.185;    0.587;  -12.140;  564.320
1158.723;   -0.820;  -14.390;  509.200
1159.260;    1.406;  -14.090;  701.700
1159.798;    0.700;  -11.920;  658.160
1160.335;    0.091;  -11.110;  631.820

