
Integration time [ms]:   3.882
Averaging Nr. [scans]: 1000
Smoothing Nr. [pixels]: 0
Data measured with spectrometer [name]: 7414430SP
Wave   ;Sample   ;Dark     ;Reference
[nm]   ;[counts] ;[counts] ;[counts] 

288.544;  137.898;    7.153;  793.890
289.143;  142.377;    8.402;  681.602
289.742;  144.241;    7.062;  828.814
290.341;  131.888;    0.191;  789.841
290.940;  121.732;    0.321;  730.702
291.538;  121.570;    3.811;  881.108
292.137;  121.228;   -3.438;  792.581
292.736;  124.326;   -2.809;  975.101
293.335;  120.516;   -5.239;  735.086
293.934;  121.953;   -4.939;  781.677
294.532;  123.157;   -2.199; 1031.958
295.131;  109.097;   -6.831;  834.394
295.730;  108.363;   -6.620;  809.588
296.328;  105.357;   -6.471;  783.442
296.927;  105.785;   -6.571;  779.652
297.525;  107.326;   -7.391;  781.236
298.124;   97.716;   -9.402;  654.009
298.722;  103.254;   -5.781;  761.933
299.321;  101.699;   -6.351;  708.597
299.919;   97.488;   -8.661;  751.918
300.518;   93.600;  -11.922;  689.338
301.116;   95.147;   -6.941;  691.381
301.715;   96.107;   -5.471;  730.222
302.313;   95.740;   -8.361;  704.943
302.911;   89.927;   -9.082;  733.830
303.509;   95.563;   -4.571;  925.627
304.108;   94.020;   -7.111;  760.383
304.706;   93.580;   -7.681;  801.664
305.304;   87.931;   -9.162;  796.707
305.902;   93.368;   -6.761;  784.484
306.500;   89.346;   -6.921;  728.200
307.098;   87.272;   -6.491;  746.560
307.696;   85.314;   -6.941;  780.432
308.294;   85.795;   -6.301;  731.359
308.892;   88.339;   -4.771;  759.769
309.490;   84.440;   -5.141;  712.161
310.088;   82.706;   -2.912;  788.444
310.686;   86.604;   -0.421;  821.749
311.284;   83.216;   -3.461;  766.040
311.882;   80.840;   -6.282;  731.225
312.480;   77.179;   -3.632;  697.167
313.078;   79.603;   -2.112;  808.331
313.675;   80.526;   -1.931;  691.600
314.273;   75.193;   -1.442;  797.837
314.871;   73.955;   -3.002;  589.829
315.468;   72.294;   -2.252;  652.090
316.066;   76.664;   -1.091;  694.427
316.664;   68.436;   -4.512;  656.351
317.261;   73.492;   -0.062;  910.128
317.859;   68.325;   -0.952;  768.735
318.456;   70.075;    0.719;  830.096
319.054;   65.796;   -4.002;  787.828
319.651;   64.199;   -4.972;  759.928
320.249;   63.417;   -1.162;  810.188
320.846;   62.279;   -2.651;  714.286
321.443;   59.748;   -3.832;  832.135
322.041;   56.652;   -4.312;  812.315
322.638;   54.051;   -3.872;  701.456
323.235;   56.631;   -4.361;  665.683
323.833;   53.602;   -4.821;  740.354
324.430;   48.286;   -6.971;  615.900
325.027;   51.045;   -4.361;  876.855
325.624;   51.133;   -5.581;  644.532
326.221;   47.259;   -6.601;  689.717
326.818;   45.648;   -7.301;  818.332
327.415;   49.101;   -6.180;  748.828
328.012;   48.578;   -5.920;  690.585
328.609;   46.975;   -8.390;  731.389
329.206;   45.424;   -6.121;  778.621
329.803;   45.231;   -5.241;  737.841
330.400;   47.259;   -7.420;  704.260
330.997;   48.066;   -5.931;  817.147
331.594;   44.594;   -5.641;  788.185
332.191;   50.194;   -6.451;  728.722
332.787;   53.973;   -4.651;  844.463
333.384;   51.840;   -5.472;  763.093
333.981;   49.359;   -6.303;  815.687
334.578;   52.298;   -5.892;  708.378
335.174;   54.711;   -4.102;  731.469
335.771;   54.808;   -8.053;  836.456
336.367;   51.124;   -7.363;  710.631
336.964;   55.030;   -6.243;  793.266
337.561;   54.340;   -5.653;  731.112
338.157;   50.515;   -7.074;  911.916
338.754;   46.822;   -5.474;  796.589
339.350;   46.651;   -5.624;  722.493
339.946;   49.821;   -5.054;  773.135
340.543;   40.953;   -6.695;  846.136
341.139;   34.724;   -6.215;  720.836
341.735;   34.324;   -5.746;  772.593
342.332;   32.410;   -7.335;  691.472
342.928;   32.289;   -4.835;  795.394
343.524;   26.529;   -4.586;  761.684
344.120;   24.020;   -3.946;  738.562
344.716;   27.678;   -4.835;  723.717
345.313;   24.498;   -5.325;  795.342
345.909;   19.922;   -6.535;  627.336
346.505;   22.027;   -4.725;  740.247
347.101;   22.857;   -4.164;  827.864
347.697;   22.297;   -5.274;  785.398
348.293;   17.493;   -7.145;  627.244
348.889;   17.589;   -4.364;  745.914
349.485;   18.146;   -6.404;  688.205
350.081;   17.958;   -7.534;  772.592
350.676;   12.648;   -6.995;  691.606
351.272;   17.980;   -3.544;  809.530
351.868;   17.846;   -5.324;  780.497
352.464;   14.381;   -7.204;  723.932
353.059;   10.845;   -6.894;  646.017
353.655;   14.543;   -3.754;  777.063
354.251;   15.939;   -6.143;  759.845
354.846;   10.309;   -9.464;  740.646
355.442;    7.444;   -7.555;  753.071
356.038;    9.398;   -5.474;  751.708
356.633;    9.964;   -5.914;  728.594
357.229;    8.046;   -8.944;  724.757
357.824;    6.308;   -6.794;  703.600
358.420;    6.205;   -5.754;  679.726
359.015;    6.463;   -5.664;  695.357
359.610;    7.188;   -8.004;  763.920
360.206;    0.512;   -8.815;  603.240
360.801;    3.946;   -8.834;  646.503
361.396;    6.797;   -6.274;  725.975
361.992;    2.084;   -8.574;  668.220
362.587;   -1.862;   -9.265;  670.160
363.182;    1.379;   -5.484;  689.631
363.777;    2.890;   -5.164;  738.242
364.372;    2.058;   -6.954;  737.314
364.967;   -2.289;   -7.065;  680.744
365.563;    2.446;   -5.684;  815.567
366.158;   -0.369;   -6.484;  685.161
366.753;   -0.180;   -8.004;  649.263
367.348;   -1.315;  -10.114;  746.056
367.942;   -1.644;   -7.764;  697.298
368.537;   -2.225;   -4.554;  754.245
369.132;   -2.200;   -7.664;  703.428
369.727;   -6.632;   -8.905;  638.079
370.322;   -5.288;   -4.945;  580.186
370.917;   -4.799;   -7.095;  710.646
371.511;   -2.498;   -6.574;  861.834
372.106;   -6.841;   -6.515;  776.964
372.701;   -9.733;   -8.225;  585.988
373.296;   -2.855;   -4.494;  863.135
373.890;   -8.221;   -7.965;  647.840
374.485;  -10.944;   -9.745;  691.199
375.079;   -6.553;   -5.554;  738.685
375.674;   -4.571;   -4.724;  812.970
376.268;   -9.392;   -8.365;  691.759
376.863;  -14.948;   -8.126;  580.327
377.457;   -8.541;   -6.045;  662.490
378.052;   -9.900;   -6.835;  764.884
378.646;  -11.071;   -9.375;  741.167
379.240;  -11.835;   -6.185;  721.176
379.835;  -10.170;   -6.135;  636.978
380.429;  -12.440;   -8.365;  562.557
381.023;  -12.258;   -7.935;  779.205
381.617;  -15.303;   -8.325;  680.106
382.212;  -11.885;   -7.405;  685.303
382.806;  -10.770;   -4.155;  760.690
383.400;  -15.452;   -8.945;  672.281
383.994;  -15.865;   -8.365;  664.870
384.588;  -11.189;   -7.824;  697.701
385.182;  -10.209;   -7.984;  726.624
385.776;  -12.224;  -10.404;  706.875
386.370;  -15.110;   -7.335;  681.968
386.964;  -14.135;   -7.485;  684.155
387.558;  -11.541;   -8.174;  598.360
388.152;  -15.465;  -10.415;  681.959
388.745;  -13.968;   -9.595;  814.707
389.339;  -12.364;   -6.454;  747.642
389.933;  -11.533;   -5.804;  695.370
390.527;  -12.212;   -6.854;  859.029
391.120;  -18.924;   -7.665;  595.318
391.714;  -16.184;   -7.245;  711.633
392.308;  -11.829;   -4.514;  780.253
392.901;  -15.747;   -7.935;  642.460
393.495;  -18.385;   -8.585;  595.414
394.089;  -16.295;   -5.245;  760.452
394.682;  -15.523;   -6.305;  697.188
395.275;  -16.902;   -9.335;  719.927
395.869;  -18.994;   -7.375;  667.314
396.462;  -17.301;   -7.055;  616.609
397.056;  -12.207;   -5.434;  776.621
397.649;  -16.982;   -9.525;  731.575
398.242;  -15.219;   -7.574;  712.645
398.836;  -13.875;   -5.134;  766.408
399.429;  -14.923;   -6.544;  631.041
400.022;  -19.022;   -9.215;  665.902
400.615;  -16.614;   -8.105;  805.609
401.208;  -14.270;   -7.614;  691.451
401.802;  -15.894;   -8.085;  699.329
402.395;  -17.610;   -9.575;  683.502
402.988;  -19.334;   -9.285;  696.627
403.581;  -15.348;   -7.514;  646.878
404.174;  -12.114;   -6.404;  686.568
404.767;  -16.076;   -8.775;  638.583
405.360;  -18.477;   -7.415;  621.445
405.953;  -12.154;   -5.624;  759.034
406.545;  -12.355;   -6.474;  725.342
407.138;  -16.835;   -8.445;  618.350
407.731;  -15.344;  -10.044;  613.303
408.324;  -12.075;   -8.484;  660.554
408.917;  -11.849;   -7.624;  681.864
409.509;  -13.413;   -8.304;  740.396
410.102;  -16.830;   -8.495;  643.948
410.695;  -10.267;   -7.824;  665.758
411.287;  -10.526;   -7.754;  599.821
411.880;  -12.576;   -9.294;  585.421
412.472;  -15.438;   -8.814;  613.092
413.065;  -12.864;   -6.674;  629.408
413.657;  -10.581;   -9.664;  576.678
414.250;  -10.256;  -10.264;  646.681
414.842;  -12.561;   -8.664;  676.353
415.434;  -10.343;   -8.584;  570.463
416.027;   -5.371;   -9.423;  652.196
416.619;   -7.734;  -10.764;  713.400
417.211;   -8.556;   -7.404;  599.352
417.804;   -4.592;   -7.383;  628.499
418.396;   -8.658;   -8.334;  607.643
418.988;   -6.673;   -9.633;  659.238
419.580;  -10.439;  -10.554;  568.276
420.172;   -8.478;   -8.683;  536.196
420.764;   -3.801;   -9.713;  672.482
421.356;   -4.667;  -11.303;  636.898
421.948;   -6.016;   -8.453;  677.661
422.540;   -0.274;   -5.793;  680.027
423.132;   -0.704;   -7.162;  600.641
423.724;   -4.782;   -7.933;  561.267
424.316;   -2.949;   -9.083;  621.345
424.908;    0.110;   -8.392;  591.517
425.500;    2.417;   -8.062;  647.978
426.092;    2.733;   -9.692;  648.268
426.683;    0.021;   -8.223;  684.836
427.275;    3.718;   -8.602;  641.471
427.867;    5.405;   -8.382;  668.948
428.458;    5.323;  -10.472;  732.344
429.050;    3.532;   -9.112;  680.749
429.642;    6.580;   -7.752;  743.124
430.233;    7.506;   -8.832;  569.356
430.825;    8.754;   -8.292;  724.809
431.416;    5.512;   -7.522;  698.241
432.008;    8.396;   -9.262;  651.723
432.599;   10.036;   -6.441;  656.073
433.190;    6.728;   -9.222;  637.670
433.782;    5.959;  -11.832;  590.395
434.373;   14.253;   -7.121;  884.765
434.964;   12.116;   -9.141;  602.920
435.556;    9.982;   -9.332;  634.537
436.147;   12.597;   -8.892;  758.490
436.738;   12.128;   -8.151;  701.099
437.329;   18.168;   -8.281;  721.723
437.920;   10.827;   -9.062;  666.688
438.511;   10.425;  -11.182;  564.526
439.103;   16.861;   -7.461;  623.998
439.694;   19.946;   -8.541;  681.583
440.285;   20.822;   -7.351;  764.432
440.876;   18.285;   -8.201;  845.738
441.466;   17.014;  -10.381;  575.162
442.057;   23.092;   -7.620;  665.814
442.648;   21.729;   -8.461;  746.255
443.239;   19.483;   -8.991;  620.477
443.830;   24.957;   -7.910;  704.958
444.421;   26.566;   -7.340;  655.474
445.011;   22.804;   -8.981;  693.619
445.602;   22.172;   -9.341;  743.126
446.193;   24.121;  -11.390;  488.117
446.783;   29.385;  -11.240;  640.397
447.374;   24.028;   -8.471;  692.759
447.964;   25.301;   -8.471;  713.770
448.555;   33.906;   -6.590;  822.742
449.145;   30.049;   -8.200;  662.853
449.736;   30.723;  -11.040;  803.179
450.326;   30.869;   -9.640;  713.626
450.917;   35.575;   -9.480;  675.324
451.507;   34.701;   -8.020;  600.661
452.097;   35.575;  -10.210;  746.267
452.688;   36.260;   -7.810;  742.160
453.278;   36.193;   -9.360;  566.840
453.868;   41.010;   -8.669;  793.550
454.458;   38.485;  -10.950;  651.141
455.048;   38.215;  -10.200;  711.783
455.639;   39.949;   -9.369;  567.096
456.229;   43.719;   -7.739;  710.694
456.819;   45.907;   -8.939;  751.158
457.409;   45.414;   -7.169;  773.993
457.999;   48.524;   -7.779;  737.505
458.589;   48.524;   -7.039;  686.606
459.179;   48.313;   -9.019;  717.658
459.769;   45.870;   -8.909;  627.099
460.358;   51.065;   -8.659;  797.262
460.948;   51.684;   -8.209;  689.503
461.538;   52.428;   -9.879;  660.677
462.128;   50.055;   -9.379;  664.934
462.717;   57.274;   -9.158;  710.326
463.307;   61.012;   -8.638;  705.846
463.897;   56.416;   -8.869;  656.942
464.486;   55.394;   -7.409;  837.128
465.076;   59.946;   -9.618;  733.776
465.666;   63.708;   -7.578;  652.900
466.255;   61.275;   -9.369;  785.651
466.845;   59.783;  -10.049;  666.749
467.434;   63.332;   -8.168;  725.873
468.023;   64.836;   -9.188;  658.357
468.613;   61.163;   -9.849;  713.946
469.202;   65.317;  -12.958;  646.507
469.791;   70.146;   -9.488;  737.811
470.381;   72.833;   -6.468;  742.813
470.970;   71.905;  -10.248;  711.099
471.559;   70.484;  -11.428;  733.291
472.148;   73.208;   -9.738;  675.737
472.738;   77.190;   -7.877;  765.466
473.327;   76.472;  -11.868;  637.529
473.916;   75.710;   -8.578;  737.446
474.505;   79.100;  -11.137;  751.703
475.094;   83.418;   -9.407;  806.570
475.683;   82.277;   -9.977;  797.699
476.272;   82.477;  -10.807;  730.632
476.861;   86.682;  -11.017;  706.754
477.449;   92.818;  -10.316;  728.487
478.038;   87.095;  -10.187;  692.513
478.627;   87.674;  -12.458;  714.852
479.216;   94.103;  -10.127;  769.441
479.805;   97.539;   -6.256;  783.375
480.393;   96.371;   -8.737; 1008.945
480.982;   96.352;   -9.087;  874.501
481.571;  102.000;   -7.806;  858.333
482.159;  102.626;  -10.596;  705.386
482.748;  102.429;  -11.507;  821.385
483.336;  105.813;   -8.366;  858.209
483.925;  106.290;   -7.497;  774.373
484.513;  114.287;   -8.326;  758.962
485.102;  109.793;  -10.277;  810.965
485.690;  119.966;   -8.256; 1011.050
486.278;  121.218;   -7.146;  979.329
486.867;  121.623;   -7.986;  809.662
487.455;  123.734;   -9.926;  898.229
488.043;  123.788;  -10.026;  748.361
488.631;  133.226;   -7.226; 1005.079
489.220;  137.233;   -8.696;  908.626
489.808;  136.500;  -12.276;  741.415
490.396;  142.714;   -9.386;  914.645
490.984;  148.400;   -8.506;  830.161
491.572;  159.054;   -8.226;  940.315
492.160;  163.791;   -9.836;  919.081
492.748;  173.962;  -10.316;  884.341
493.336;  193.846;   -7.146; 1019.693
493.924;  215.309;   -7.965;  958.077
494.512;  242.242;  -10.316; 1066.638
495.100;  274.023;  -10.186; 1103.280
495.687;  328.526;   -7.805; 1206.373
496.275;  386.532;   -9.686; 1150.796
496.863;  467.390;  -11.566; 1281.171
497.451;  547.101;  -11.406; 1386.805
498.038;  646.118;   -8.235; 1556.729
498.626;  763.162;   -7.485; 1741.407
499.214;  916.461;   -8.646; 2016.609
499.801; 1159.536;   -9.936; 2220.633
500.389; 1369.005;   -8.056; 2312.494
500.976; 1514.446;   -6.166; 2744.849
501.564; 1692.965;   -9.126; 3148.565
502.151; 1963.006;  -12.456; 3515.999
502.738; 2333.524;  -10.056; 3971.274
503.326; 2739.453;  -10.605; 4403.796
503.913; 3109.818;  -10.576; 5161.749
504.500; 3557.836;   -9.056; 5986.420
505.088; 4059.660;  -10.136; 6381.201
505.675; 4709.262;   -9.075; 6925.547
506.262; 5153.737;  -11.346; 7619.060
506.849; 5983.521;   -9.376; 8733.969
507.436; 6717.265;   -7.365; 9790.121
508.023; 6701.928;   -8.686; 9985.472
508.610; 6898.079;   -8.846;10434.618
509.197; 7623.426;   -9.077;11198.435
509.784; 8996.598;  -10.246;12391.194
510.371;10222.530;   -9.825;13603.713
510.958;11287.302;  -10.896;14426.586
511.545;11960.556;   -9.006;15243.775
512.132;11746.296;   -8.765;15945.876
512.719;12190.370;   -8.286;16340.369
513.305;14119.442;   -9.256;18011.766
513.892;16179.137;  -11.106;19754.971
514.479;19102.586;   -8.576;20967.805
515.066;21935.727;   -9.046;22299.793
515.652;22708.160;  -10.676;22908.660
516.239;23256.805;  -10.166;23798.875
516.825;22713.539;  -11.266;25567.275
517.412;22098.012;   -7.446;28154.959
517.998;21698.420;  -10.916;28344.111
518.585;21317.355;   -9.166;27134.219
519.171;20694.529;  -10.135;27268.576
519.758;21739.471;   -8.806;28964.129
520.344;24546.469;   -6.716;30664.494
520.930;27161.943;  -10.166;32550.605
521.516;27396.707;   -9.615;35422.895
522.103;29833.547;   -8.656;38280.004
522.689;30815.756;   -9.646;37835.117
523.275;30029.139;  -10.786;37288.613
523.861;32281.865;   -9.266;37281.395
524.447;33337.910;   -8.285;37846.949
525.033;32798.555;   -9.426;38321.949
525.619;33118.441;   -9.836;38579.285
526.205;35637.762;   -8.136;40622.875
526.791;36537.391;   -9.986;42258.836
527.377;36249.520;   -8.236;42966.902
527.963;35538.438;  -12.117;42018.949
528.549;34065.836;   -8.376;42476.828
529.135;35047.738;   -8.696;41854.852
529.721;37254.727;   -9.686;41237.711
530.306;39596.141;   -8.616;41259.445
530.892;42150.602;   -9.396;41506.047
531.478;43217.941;   -9.926;43559.613
532.063;43653.500;  -10.236;47695.563
532.649;44719.258;   -8.257;50808.324
533.235;45680.570;  -11.476;51787.500
533.820;45723.836;   -8.156;52145.035
534.406;46668.719;  -12.257;51133.488
534.991;43789.145;   -8.686;49996.805
535.576;41129.918;   -9.426;48882.852
536.162;40888.703;   -8.436;46942.285
536.747;41558.375;  -10.957;45711.746
537.333;41175.527;  -13.147;48510.180
537.918;42808.555;   -9.027;50439.891
538.503;45192.121;   -8.256;50863.711
539.088;46367.742;  -10.576;50906.922
539.673;47688.984;  -10.907;52621.965
540.259;49250.938;   -9.126;52368.094
540.844;48810.391;   -9.026;50879.109
541.429;48872.039;   -9.597;52077.777
542.014;51302.008;  -11.447;52716.695
542.599;52420.465;   -9.236;52363.281
543.184;52198.492;  -12.267;53187.137
543.769;52927.426;  -10.367;54697.605
544.354;52586.266;  -10.887;53913.914
544.938;46625.008;  -11.687;49680.164
545.523;42445.527;   -8.286;47386.277
546.108;43216.160;   -9.317;49151.949
546.693;44268.137;  -10.187;51384.637
547.278;42273.227;   -9.926;51853.254
547.862;41404.828;   -9.196;51173.750
548.447;40809.797;   -9.657;51691.395
549.031;42346.090;   -9.127;52456.703
549.616;45004.238;  -10.836;52714.516
550.201;46016.047;   -8.507;52414.598
550.785;46555.875;  -10.537;52355.059
551.370;49710.660;  -11.727;54589.453
551.954;49100.418;   -9.457;58267.348
552.538;47528.668;   -8.147;59062.176
553.123;47179.539;   -9.397;58115.285
553.707;48581.996;   -9.558;56556.285
554.291;48103.344;   -9.417;56201.668
554.876;50015.070;   -7.627;55335.762
555.460;48356.762;  -10.457;54155.703
556.044;43773.504;  -10.078;53721.484
556.628;42995.953;   -9.407;53731.016
557.212;42052.297;   -7.957;54312.531
557.796;41296.801;  -11.327;53797.773
558.380;45232.551;  -10.868;56145.984
558.964;45539.238;   -9.637;57277.930
559.548;43765.992;   -8.807;56459.641
560.132;46013.145;  -10.187;54434.543
560.716;46923.492;   -9.868;54800.617
561.300;48396.977;  -10.217;57606.945
561.884;48516.934;   -4.947;58972.445
562.467;45601.027;   -9.588;57327.570
563.051;41253.152;  -11.138;54962.434
563.635;41713.102;   -9.358;52594.473
564.219;42519.574;   -9.797;50610.410
564.802;41041.316;   -9.918;49551.180
565.386;40173.020;  -10.838;48370.953
565.969;39667.188;   -8.037;48178.871
566.553;38506.180;   -5.667;49957.305
567.136;38433.949;   -8.258;50369.594
567.720;38970.004;  -11.278;49492.004
568.303;37061.961;   -9.028;50616.352
568.887;35429.844;   -7.508;50727.148
569.470;34380.410;  -11.068;51698.379
570.053;36329.594;  -10.028;52122.078
570.637;36399.309;  -11.077;52536.438
571.220;37749.223;   -8.747;51186.098
571.803;39972.590;   -8.868;51032.762
572.386;40809.344;  -10.608;49609.887
572.969;39574.832;  -10.548;48285.926
573.552;36303.605;   -7.898;47624.285
574.135;34707.559;   -9.918;45498.641
574.718;31207.514;  -10.328;41970.434
575.301;29899.018;   -9.548;41447.137
575.884;28590.520;   -8.768;40923.836
576.467;34112.703;   -9.858;45267.723
577.050;34915.906;  -11.018;48175.543
577.633;36373.492;  -10.048;47729.328
578.216;35434.094;  -10.268;47579.793
578.799;33359.699;  -11.808;47820.996
579.381;32469.500;   -7.338;48115.551
579.964;34060.039;   -9.728;47333.766
580.547;34442.656;   -8.928;46668.969
581.129;34384.844;   -9.149;44466.141
581.712;35989.508;  -11.359;44164.922
582.294;35918.953;  -10.738;46477.855
582.877;34047.258;   -8.788;48244.254
583.459;32977.535;   -9.859;47437.895
584.042;33953.609;   -9.649;46943.219
584.624;34468.258;  -10.529;46792.227
585.206;33043.313;  -10.298;46557.250
585.789;31213.113;  -11.029;45793.773
586.371;31163.570;   -9.359;43836.391
586.953;31785.910;   -8.799;42972.492
587.536;31970.119;   -8.928;42487.211
588.118;31291.832;   -9.180;42086.414
588.700;29657.586;  -10.519;43389.930
589.282;28703.086;   -8.098;43646.039
589.864;28724.570;   -8.139;43438.109
590.446;30074.924;  -10.509;43151.926
591.028;32584.576;  -11.119;42781.867
591.610;33197.098;  -10.019;42839.098
592.192;31179.139;   -8.838;42820.402
592.774;28176.016;  -11.549;40724.277
593.356;24742.367;  -11.609;39874.789
593.937;24210.031;  -10.019;39980.648
594.519;27324.041;   -7.839;42069.633
595.101;30549.002;  -10.779;42976.031
595.683;33098.414;  -10.049;44084.441
596.264;33752.867;   -9.969;43478.797
596.846;32708.912;   -9.699;43803.672
597.427;32052.525;  -10.970;42986.934
598.009;33164.223;  -13.090;42832.219
598.591;33425.816;   -9.509;42580.086
599.172;31634.283;   -9.019;43061.805
599.753;29125.602;  -13.310;41691.469
600.335;29308.625;  -11.010;40692.520
600.916;30106.797;  -10.309;39982.422
601.498;30240.570;   -8.209;40318.617
602.079;30262.332;  -11.440;40670.609
602.660;31632.453;   -8.690;41450.898
603.241;33120.910;  -12.759;41137.738
603.823;31428.742;  -10.409;38868.797
604.404;31383.254;  -11.790;38182.785
604.985;29845.855;  -10.280;38078.047
605.566;30481.576;   -8.059;38056.633
606.147;30988.020;   -8.960;37020.418
606.728;30755.469;  -10.710;37883.359
607.309;29941.750;  -12.760;38748.273
607.890;27893.424;   -9.959;38850.230
608.471;26234.453;   -9.780;37457.918
609.051;28025.822;   -8.940;36066.457
609.632;30885.164;  -12.070;35991.074
610.213;32895.035;   -9.610;37402.641
610.794;33215.895;   -8.750;38383.363
611.374;32146.549;  -11.100;40562.387
611.955;32452.623;  -12.200;38533.727
612.536;32128.973;  -10.410;36951.789
613.116;32247.525;  -10.010;37197.891
613.697;31469.293;  -10.480;38411.125
614.277;29870.021;  -12.751;38673.938
614.858;29808.203;  -11.600;37075.863
615.438;29297.246;   -8.190;35092.906
616.019;27845.059;   -8.941;33666.301
616.599;28993.238;  -13.540;34189.023
617.179;29530.797;  -10.890;36952.047
617.760;30095.793;   -7.610;39582.574
618.340;29466.605;  -14.441;38943.977
618.920;28826.656;   -9.180;37594.156
619.500;28806.803;  -11.881;37866.938
620.080;30762.039;   -9.870;37869.043
620.660;30930.193;  -13.211;36868.617
621.241;29795.621;  -11.921;36352.309
621.821;28616.268;  -10.271;35459.520
622.401;28324.596;   -8.200;35207.414
622.980;29288.844;  -11.141;35980.422
623.560;30786.457;  -14.321;37351.328
624.140;30563.957;   -9.360;34388.582
624.720;27181.744;   -7.481;32368.764
625.300;23882.020;  -12.730;32638.629
625.880;28606.084;  -11.441;34599.035
626.459;32365.600;  -10.971;36831.738
627.039;33948.109;   -9.011;38299.098
627.619;33723.926;   -8.521;38289.574
628.198;34706.164;   -9.861;37220.695
628.778;34391.949;   -8.841;37632.563
629.357;32968.375;   -9.891;38003.012
629.937;30747.684;  -11.871;38402.039
630.516;29624.121;  -10.641;37868.801
631.096;31778.801;  -11.391;35760.410
631.675;33314.922;   -6.622;35225.219
632.254;31206.014;  -13.002;35130.289
632.834;29553.000;  -11.622;35794.570
633.413;31482.924;   -8.321;35788.922
633.992;29827.791;   -7.732;34532.863
634.571;29384.332;  -10.992;33590.113
635.151;30908.152;  -10.422;34943.863
635.730;31259.650;  -11.511;35352.523
636.309;30432.520;   -7.901;35366.605
636.888;29530.012;  -11.452;36165.637
637.467;29117.898;  -10.672;37515.902
638.046;29099.564;   -9.301;39288.695
638.625;30150.760;  -11.452;38279.699
639.204;31690.186;  -12.262;37741.598
639.782;31262.359;  -11.892;38364.551
640.361;29934.543;  -11.411;36740.621
640.940;26828.861;  -11.501;34950.082
641.519;27082.799;  -10.921;34137.398
642.097;30274.318;  -10.101;35654.258
642.676;30842.752;  -10.821;35637.957
643.255;33250.875;   -8.631;36567.074
643.833;35334.746;  -11.411;37809.434
644.412;36327.504;  -12.021;37337.293
644.990;36116.574;  -12.271;37018.531
645.569;35264.809;   -9.741;36518.469
646.147;33964.688;   -9.051;36186.430
646.726;32099.350;  -13.861;36267.688
647.304;32229.668;   -9.461;36647.625
647.882;31314.488;  -13.171;39286.742
648.461;31341.910;  -11.911;39157.703
649.039;31634.172;   -9.541;35412.883
649.617;33374.656;   -8.901;34744.918
650.195;31551.385;   -8.591;35403.098
650.773;30063.439;  -13.031;35053.797
651.352;28547.322;  -12.211;33756.816
651.930;25552.928;  -11.361;31868.773
652.508;22937.459;   -8.601;33121.551
653.086;26550.879;   -9.991;33564.793
653.663;30806.549;  -11.931;34054.668
654.241;32480.568;  -10.821;35693.309
654.819;32977.055;   -9.341;36422.906
655.397;30935.428;  -10.851;38213.484
655.975;29357.455;  -11.461;39507.625
656.553;29965.033;   -8.841;39498.223
657.130;29559.646;  -10.371;40395.480
657.708;28536.383;  -11.071;39242.020
658.286;28485.275;  -11.141;38920.020
658.863;31042.523;  -10.861;40202.898
659.441;36692.324;  -11.181;39677.938
660.018;38046.863;  -10.851;40413.355
660.596;36805.715;  -12.571;39931.414
661.173;37396.871;  -12.141;39604.531
661.750;34093.406;  -11.571;39700.070
662.328;30860.846;  -10.780;39292.809
662.905;29775.273;  -10.750;38235.648
663.482;26998.852;  -11.320;36212.305
664.060;26019.457;  -10.160;35944.945
664.637;31568.451;  -13.120;35170.785
665.214;34120.668;  -11.500;34197.523
665.791;32085.936;  -12.430;34549.520
666.368;29718.023;   -9.840;35118.578
666.945;28630.127;  -11.290;36019.418
667.522;28943.201;  -13.540;36048.438
668.099;29717.191;  -10.250;36243.914
668.676;28671.764;  -11.270;35958.875
669.253;28043.879;   -8.210;37384.730
669.830;26793.875;   -9.710;36779.629
670.407;26232.680;   -9.700;35231.289
670.984;25937.941;   -9.190;35544.270
671.560;24721.859;   -9.560;35466.867
672.137;24552.906;  -11.820;34280.863
672.714;27521.070;  -12.460;34632.863
673.290;31686.875;  -10.940;35135.422
673.867;32893.613;  -10.510;36114.480
674.443;31058.969;  -12.110;36152.859
675.020;30992.809;  -11.760;35327.238
675.596;31621.480;   -9.380;35795.176
676.173;31011.305;  -11.120;35430.355
676.749;30177.479;  -13.390;33549.516
677.326;29086.439;  -12.600;32210.012
677.902;28129.596;  -10.830;32068.871
678.478;27495.324;  -12.400;32583.891
679.054;28857.477;   -8.610;32088.928
679.631;30386.102;  -11.640;30978.848
680.207;31177.090;   -8.140;33160.887
680.783;30850.588;  -12.300;35570.363
681.359;29348.078;  -10.910;36125.184
681.935;28476.508;  -11.040;35240.922
682.511;28886.762;  -11.130;34429.961
683.087;29057.104;  -11.080;34463.680
683.663;30791.646;  -10.530;34648.898
684.239;31235.994;  -12.120;34546.457
684.815;30153.092;   -8.870;35586.375
685.390;28829.924;   -8.940;35821.895
685.966;27789.240;  -12.109;35085.871
686.542;26570.238;  -13.539;34198.230
687.118;25782.877;  -10.379;32847.707
687.693;26645.352;  -10.189;32794.027
688.269;26065.621;  -12.939;33072.367
688.844;24955.865;   -8.679;33141.664
689.420;25761.373;  -10.919;33965.742
689.995;26312.268;   -7.489;34655.523
690.571;25734.926;  -12.199;33576.742
691.146;26021.504;   -8.979;32657.219
691.722;27512.098;   -9.119;32526.979
692.297;27554.393;  -10.519;33014.617
692.872;27553.695;  -10.629;34012.254
693.448;27842.330;  -12.119;34237.434
694.023;27199.912;   -8.219;34142.672
694.598;25499.490;  -13.209;34132.031
695.173;24168.906;  -11.879;34205.250
695.748;24593.852;  -12.039;32882.488
696.323;25609.609;  -11.779;32864.906
696.898;26142.361;  -10.219;33170.004
697.473;27634.926;  -13.639;32432.984
698.048;28406.791;  -11.239;31649.303
698.623;30405.193;  -10.859;30778.141
699.198;32352.387;  -13.379;31140.119
699.773;32711.094;  -13.409;31764.299
700.348;31709.141;  -12.329;31780.816
700.922;31582.498;   -8.749;32046.375
701.497;31507.854;  -12.449;32603.574
702.072;29947.127;   -8.879;34799.871
702.646;28013.629;  -10.719;35793.172
703.221;27391.313;   -8.469;35201.590
703.795;28236.600;  -11.389;34764.527
704.370;27266.357;  -12.499;34307.367
704.944;25831.436;  -11.449;33509.887
705.519;25757.148;  -10.659;31388.584
706.093;25097.186;  -12.909;31340.104
706.668;25457.445;  -13.509;32630.281
707.242;26453.443;  -10.049;32728.779
707.816;26381.430;  -10.629;32947.238
708.390;25616.240;  -11.829;33277.855
708.965;24239.215;  -11.159;33834.336
709.539;24517.865;  -11.069;33709.273
710.113;24278.668;  -10.908;33044.313
710.687;22485.248;   -9.488;31953.992
711.261;22714.088;  -13.068;30505.949
711.835;25267.242;  -12.748;30262.369
712.409;27491.006;  -10.678;31254.447
712.983;27068.984;  -11.658;32754.986
713.557;26537.867;  -13.718;34018.824
714.131;27243.635;  -13.388;34579.625
714.704;29810.148;   -9.818;33890.262
715.278;31776.986;  -11.818;33531.102
715.852;31873.922;  -11.328;33601.660
716.425;32349.516;   -9.118;33515.117
716.999;32539.975;  -10.188;33185.555
717.573;31579.445;   -9.808;33905.996
718.146;30406.973;  -11.478;35199.293
718.720;29111.613;  -10.998;35060.551
719.293;28255.721;   -9.508;34973.230
719.867;29309.666;  -12.138;36394.449
720.440;28984.303;  -11.288;36663.008
721.013;31077.947;  -11.428;35102.426
721.587;32714.881;  -11.698;33985.266
722.160;34178.859;  -11.608;33524.965
722.733;34423.961;  -11.428;32987.043
723.306;31143.020;  -12.518;33066.301
723.880;29545.137;   -7.408;33399.500
724.453;29385.633;  -11.048;33468.297
725.026;28316.035;  -11.678;33816.637
725.599;26864.490;  -10.978;32797.996
726.172;25092.053;   -8.838;33187.434
726.745;24836.627;  -11.438;35136.613
727.318;26332.518;   -9.828;35751.730
727.891;27093.893;  -10.868;35890.430
728.463;27024.328;  -11.348;34822.090
729.036;25856.887;  -11.608;32895.086
729.609;25475.262;  -14.738;31823.225
730.182;25782.043;   -8.448;31445.283
730.754;26696.094;  -11.228;32373.223
731.327;27026.934;  -12.018;33676.820
731.900;28865.035;  -13.748;33417.000
732.472;29962.152;  -10.928;31978.498
733.045;29475.941;   -9.478;30368.777
733.617;27595.197;  -12.967;30574.215
734.190;26944.416;  -11.707;31280.975
734.762;26353.441;  -11.067;31674.412
735.334;25254.064;  -10.587;31247.291
735.907;24086.598;  -11.947;29876.211
736.479;24592.455;  -11.667;29808.488
737.051;26358.170;  -10.187;30233.547
737.623;27055.643;   -6.887;31469.086
738.195;28354.154;  -12.117;31784.225
738.768;30488.232;  -14.077;32120.523
739.340;29967.867;  -12.207;32094.342
739.912;27534.094;   -8.977;31312.680
740.484;25975.016;  -11.017;31946.238
741.056;27838.061;  -13.517;32984.059
741.628;30476.289;  -11.507;33897.715
742.199;31023.416;   -7.597;33213.016
742.771;30508.789;  -12.227;31369.113
743.343;29069.008;  -12.427;31865.473
743.915;27186.014;   -9.827;32388.631
744.487;25991.371;  -10.007;31079.568
745.058;25065.363;  -11.887;30570.107
745.630;24044.879;  -10.787;29970.127
746.201;23587.781;  -10.887;29186.766
746.773;25160.350;   -9.707;28805.723
747.344;26314.268;  -11.137;29591.223
747.916;25695.703;  -11.887;31412.201
748.487;24949.070;   -9.707;32194.898
749.059;24457.652;  -10.027;32533.719
749.630;23806.559;  -11.787;32158.518
750.201;22575.400;  -12.767;30855.395
750.773;20697.070;  -11.497;28622.555
751.344;21481.568;   -9.937;28405.732
751.915;21434.070;  -11.567;28461.551
752.486;19366.824;  -13.267;27842.850
753.057;18317.225;  -10.627;27845.008
753.628;18358.326;  -11.657;27728.107
754.199;20697.096;  -12.097;27381.086
754.770;22243.568;  -11.447;25882.203
755.341;22602.980;  -11.997;25886.184
755.912;21027.232;  -10.207;26050.861
756.483;19251.943;  -10.937;26798.779
757.054;19666.998;  -11.527;27048.238
757.625;19886.207;  -12.886;26294.838
758.195;19366.711;  -11.226;26142.076
758.766;19736.379;  -12.366;26392.234
759.337;18575.186;  -11.946;26334.594
759.907;18127.684;  -13.856;27579.652
760.478;19458.242;   -9.606;28352.770
761.048;21040.197;  -11.606;27325.088
761.619;21651.334;  -11.036;26460.428
762.189;19958.654;  -12.206;26029.826
762.760;19041.904;   -9.666;26430.145
763.330;19994.979;   -9.796;26670.902
763.900;19872.740;  -10.896;26603.021
764.471;19386.971;  -11.726;25542.740
765.041;20076.820;   -9.656;24358.459
765.611;20516.082;  -11.276;23991.297
766.181;20050.877;  -12.116;24470.236
766.751;19866.367;  -12.376;24845.975
767.321;20181.332;  -11.626;24533.633
767.891;19943.154;  -10.426;24916.492
768.461;18264.781;  -13.456;24776.771
769.031;15846.883;  -11.616;24757.988
769.601;14869.967;  -11.356;24181.088
770.171;14871.167;  -11.586;23670.387
770.741;15512.534;  -12.696;22960.045
771.311;17198.898;  -10.226;22917.523
771.880;17871.043;  -11.146;23562.941
772.450;18236.080;  -11.716;24216.500
773.020;18166.207;  -13.226;24140.398
773.589;17169.801;  -12.586;24414.857
774.159;16782.871;  -10.246;23858.717
774.729;16173.792;  -11.586;22942.135
775.298;16002.717;  -15.926;22324.033
775.867;15907.972;  -10.426;21140.313
776.437;15458.586;  -11.416;20838.092
777.006;13666.977;  -12.766;20599.510
777.576;13667.292;  -13.666;20508.809
778.145;15074.064;  -10.066;20732.947
778.714;15346.472;  -10.276;21062.465
779.283;14764.326;  -12.086;20949.664
779.853;14460.142;  -14.016;20508.623
780.422;14262.375;  -12.376;20649.082
780.991;13634.268;   -9.246;21527.520
781.560;13360.995;   -9.775;22632.658
782.129;13673.372;  -12.495;23048.277
782.698;13763.437;  -11.775;23438.555
783.267;13676.295;  -10.065;23267.734
783.836;14586.883;  -12.455;22415.133
784.404;15103.328;  -13.385;20443.152
784.973;14959.572;  -11.045;19699.150
785.542;14478.743;   -9.505;19763.828
786.111;13770.391;   -9.385;20341.408
786.679;13539.842;  -13.475;20207.967
787.248;13479.783;  -11.245;19516.465
787.817;12023.229;  -12.485;18900.363
788.385;10548.280;  -11.165;17879.121
788.954;11105.039;  -11.755;17658.301
789.522;12113.938;   -9.625;17788.879
790.090;12468.828;   -9.665;18118.277
790.659;11799.119;   -9.295;18338.736
791.227;11717.784;  -12.175;18508.615
791.795;12488.701;  -12.145;17898.254
792.364;12518.517;  -11.575;17295.133
792.932;11973.600;  -11.085;16822.051
793.500;11610.386;  -11.345;17040.148
794.068;11253.730;  -12.565;17179.787
794.636;11829.266;  -12.105;16664.246
795.204;12895.448;  -11.995;16524.545
795.772;12848.783;  -12.615;17274.564
796.340;12293.517;  -12.425;17891.002
796.908;11853.743;  -11.455;17648.561
797.476;10988.450;  -12.165;17064.080
798.044; 9838.090;  -15.795;16672.777
798.612; 9320.742;  -10.985;17023.996
799.180; 9914.924;  -12.055;16561.615
799.747;10478.616;  -12.525;15962.773
800.315; 9712.035;  -14.765;15296.992
800.883; 8564.396;  -12.435;14801.771
801.450; 8450.871;  -11.295;14534.430
802.018; 8874.453;  -11.185;14173.248
802.585; 9036.757;  -11.625;14029.547
803.153; 8370.452;  -10.665;13836.846
803.720; 7857.774;  -10.275;13567.324
804.287; 7978.556;  -12.865;13360.622
804.855; 8176.876;  -12.324;13681.981
805.422; 8080.383;  -11.574;13536.560
805.989; 7731.933;  -11.004;13355.958
806.556; 7983.432;  -12.214;13747.896
807.124; 8434.368;  -13.304;13987.376
807.691; 8426.010;  -12.034;14038.674
808.258; 8286.862;  -11.014;14120.152
808.825; 8172.736;  -11.804;13860.111
809.392; 7902.424;  -11.544;13268.790
809.959; 7702.133;  -14.954;12680.389
810.526; 7977.976;  -10.214;12427.308
811.093; 7989.748;  -10.754;12030.105
811.659; 7566.574;  -12.194;11653.664
812.226; 6864.042;   -9.194;11637.183
812.793; 6723.179;   -9.644;11611.521
813.360; 7398.987;  -11.544;11885.181
813.926; 8380.672;  -12.814;12770.539
814.493; 8439.800;  -11.524;12677.638
815.060; 8208.155;  -12.254;11974.336
815.626; 8026.228;  -12.114;11594.715
816.193; 7481.896;  -11.994;11579.474
816.759; 6913.727;  -11.464;11666.972
817.325; 6471.240;  -10.444;11325.530
817.892; 6199.708;  -11.124;11105.369
818.458; 6213.871;  -11.864;10843.928
819.024; 6727.149;  -10.634;10714.406
819.591; 6940.775;  -10.554;10469.165
820.157; 6993.430;  -13.334;10235.523
820.723; 7016.239;  -13.044;10847.563
821.289; 6886.418;   -9.664;11040.980
821.855; 6973.707;  -10.994;10357.100
822.421; 7248.583;  -11.784; 9978.918
822.987; 7432.959;  -12.554; 9754.177
823.553; 7439.728;  -12.554;10065.755
824.119; 7061.812;   -8.544;10036.294
824.685; 6269.479;  -12.144;10029.192
825.251; 5912.049;  -12.754;10199.230
825.816; 5602.186;  -11.354; 9820.189
826.382; 5225.267;  -11.004; 9297.248
826.948; 5203.174;  -11.004; 9381.347
827.513; 5398.759;  -12.474; 9450.726
828.079; 5474.765;  -13.084; 9472.444
828.645; 5609.859;  -10.813; 9292.643
829.210; 5473.099;  -11.593; 9065.341
829.776; 5486.338;  -12.633; 9132.620
830.341; 5762.678;  -10.473; 9092.878
830.906; 5663.489;   -8.763; 9078.557
831.472; 4977.734;  -13.453; 8534.535
832.037; 4040.555;  -12.173; 8677.874
832.602; 3736.442;  -14.093; 8628.692
833.167; 4083.060;  -13.593; 8879.031
833.733; 4669.068;  -10.793; 9189.790
834.298; 5036.771;  -14.783; 9052.608
834.863; 4705.960;  -11.023; 8895.087
835.428; 4380.374;  -11.113; 8824.266
835.993; 4695.546;   -9.983; 8845.385
836.558; 4948.044;  -13.003; 8888.563
837.123; 4851.702;  -10.733; 8966.582
837.688; 4503.690;   -9.683; 8617.860
838.253; 4269.178;  -12.253; 8590.699
838.817; 4433.381;  -11.643; 8443.797
839.382; 4642.550;  -11.953; 8799.356
839.947; 4613.632;  -11.443; 8810.595
840.511; 4472.958;  -10.843; 8796.394
841.076; 4457.559;  -13.533; 8347.231
841.641; 4572.329;  -11.743; 8224.330
842.205; 4421.586;  -10.013; 8223.349
842.770; 4275.750;  -11.023; 8622.107
843.334; 4268.858;  -14.273; 8410.386
843.898; 4428.021;  -11.323; 8337.465
844.463; 4802.424;  -10.263; 8506.283
845.027; 4989.727;  -10.353; 8280.962
845.591; 4917.064;  -12.163; 8231.141
846.156; 4707.194;  -12.263; 7969.179
846.720; 4689.648;  -11.553; 7768.278
847.284; 4589.327;  -12.393; 7630.957
847.848; 3980.888;  -12.623; 7472.395
848.412; 3418.491;  -11.863; 7437.394
848.976; 3323.793;  -10.203; 7674.592
849.540; 3409.302;  -10.603; 7836.011
850.104; 3530.823;  -12.423; 7913.669
850.668; 3593.588;  -14.613; 7694.508
851.232; 3531.226;  -12.873; 7756.887
851.796; 3548.294;  -14.192; 7926.545
852.359; 3683.026;  -13.652; 7827.844
852.923; 3643.440;  -11.402; 7641.163
853.487; 3511.482;  -12.022; 7342.501
854.050; 3380.546;  -15.202; 7042.820
854.614; 3377.080;  -14.592; 7151.338
855.177; 3343.283;  -12.572; 7105.077
855.741; 3367.392;   -9.932; 6989.675
856.304; 3535.748;  -12.192; 6596.634
856.868; 3585.461;  -13.462; 6356.272
857.431; 3543.855;  -11.542; 6468.571
857.995; 3568.367;  -12.062; 6373.210
858.558; 3341.466;  -11.142; 6324.448
859.121; 3038.685;  -11.742; 6408.327
859.684; 2863.636;  -10.332; 6347.886
860.247; 2843.864;  -11.962; 6321.264
860.810; 2975.498;  -12.332; 6301.903
861.374; 3023.308;  -10.292; 6607.881
861.937; 2950.905;  -12.062; 6408.200
862.500; 3025.759;  -11.702; 6572.639
863.062; 3192.199;  -13.852; 6387.297
863.625; 3292.121;  -12.972; 6190.836
864.188; 3205.161;  -10.292; 5807.254
864.751; 3077.887;  -12.382; 5682.413
865.314; 2907.530;  -13.232; 5547.492
865.876; 2693.586;  -12.772; 5500.150
866.439; 2523.791;  -11.952; 5415.909
867.002; 2495.298;   -9.332; 5501.567
867.564; 2704.230;  -11.712; 5413.946
868.127; 2892.446;  -12.012; 5160.325
868.689; 2692.693;  -11.882; 5133.183
869.252; 2376.203;  -11.572; 5252.382
869.814; 2246.847;  -10.692; 5297.141
870.377; 2332.814;  -12.392; 5390.919
870.939; 2455.015;  -10.582; 5599.898
871.501; 2470.987;  -12.782; 5248.336
872.063; 2420.609;  -15.612; 4854.235
872.626; 2407.289;  -13.922; 4817.074
873.188; 2308.676;  -13.832; 4987.732
873.750; 2169.486;  -10.962; 4868.651
874.312; 2202.763;  -11.022; 4779.330
874.874; 2238.257;  -13.152; 4866.348
875.436; 2209.086;  -13.401; 4718.887
875.998; 2163.394;   -8.891; 4660.005
876.560; 2100.878;  -12.591; 4462.964
877.122; 2025.813;  -14.531; 4145.042
877.683; 1938.629;  -10.781; 4056.481
878.245; 1867.698;  -14.281; 3950.740
878.807; 1862.978;  -10.311; 4058.958
879.369; 1799.055;  -13.201; 3954.677
879.930; 1755.057;  -12.061; 3941.495
880.492; 1769.749;   -9.181; 4067.014
881.053; 1800.792;  -12.051; 3859.633
881.615; 1775.073;  -11.501; 3776.071
882.176; 1685.602;  -12.221; 3734.750
882.738; 1555.981;   -8.931; 3678.489
883.299; 1441.440;  -13.571; 3405.407
883.860; 1441.565;  -12.331; 3351.106
884.422; 1398.786;  -10.201; 3394.044
884.983; 1253.413;  -12.521; 3166.443
885.544; 1142.825;  -12.291; 3189.802
886.105; 1111.390;  -12.991; 3160.360
886.666; 1116.789;  -12.901; 3093.059
887.227; 1091.317;  -12.061; 2941.957
887.788; 1042.224;  -11.641; 2974.836
888.349;  991.327;  -14.691; 2721.214
888.910;  941.292;   -9.681; 2696.493
889.471;  913.007;   -9.971; 2560.172
890.032;  893.578;  -13.151; 2558.190
890.593;  867.735;  -12.051; 2567.669
891.153;  834.661;  -12.841; 2460.307
891.714;  811.800;  -13.561; 2372.046
892.275;  793.421;  -12.401; 2309.505
892.835;  759.850;  -13.191; 2382.543
893.396;  714.329;  -12.551; 2295.502
893.956;  697.056;  -11.981; 2162.420
894.517;  700.670;  -12.221; 2125.439
895.077;  673.152;  -12.021; 2086.978
895.638;  602.016;  -10.891; 2126.316
896.198;  538.425;  -13.171; 1838.275
896.758;  497.195;  -11.891; 1892.813
897.319;  453.704;  -12.491; 1792.232
897.879;  430.576;  -12.401; 1762.751
898.439;  403.061;  -13.431; 1661.149
898.999;  384.430;  -11.340; 1781.468
899.559;  375.607;  -13.930; 1703.347
900.119;  361.971;  -13.730; 1537.525
900.679;  343.776;   -9.210; 1638.384
901.239;  328.362;  -10.860; 1527.902
901.799;  308.661;  -11.450; 1456.441
902.359;  286.568;  -13.800; 1357.140
902.919;  277.083;  -12.130; 1331.118
903.479;  274.169;  -12.650; 1317.257
904.038;  263.011;  -16.110; 1262.595
904.598;  244.362;  -13.690; 1152.034
905.158;  231.311;  -10.290; 1240.893
905.717;  223.707;  -10.670; 1233.691
906.277;  219.798;  -14.040; 1217.330
906.836;  218.740;  -13.510; 1222.408
907.396;  214.639;  -11.530; 1193.047
907.955;  204.997;  -13.190; 1182.526
908.515;  192.330;  -12.950; 1099.364
909.074;  184.320;  -12.390; 1092.863
909.633;  178.630;  -10.340; 1069.121
910.192;  177.036;  -11.170; 1196.460
910.752;  172.968;  -14.200; 1029.960
911.311;  169.414;  -13.810; 1009.780
911.870;  167.355;  -12.750;  971.460
912.429;  167.135;  -12.380; 1094.080
912.988;  164.307;  -11.930; 1081.060
913.547;  159.104;  -10.990;  940.380
914.106;  156.122;  -11.200;  999.420
914.665;  153.642;  -13.150;  984.020
915.224;  151.017;  -13.310; 1035.760
915.782;  148.993;  -13.340;  922.560
916.341;  149.360;  -10.710; 1049.840
916.900;  147.392;  -12.980;  925.260
917.458;  144.604;  -13.060;  884.220
918.017;  143.778;  -10.900;  942.600
918.576;  142.498;  -11.630;  904.440
919.134;  142.432;  -12.860;  837.980
919.693;  142.093;  -15.160;  893.060
920.251;  141.510;  -13.470;  876.500
920.809;  140.928;  -13.700;  839.580
921.368;  141.071;  -13.420;  885.360
921.926;  141.685;  -14.710;  842.940
922.484;  142.089;  -12.560;  903.360
923.042;  143.372;  -11.930;  880.340
923.601;  144.441;  -10.270;  998.680
924.159;  141.249;  -12.960;  935.560
924.717;  139.527;  -13.040;  841.080
925.275;  140.259;  -12.560;  903.240
925.833;  141.957;  -13.040;  779.320
926.391;  145.217;  -13.360;  938.380
926.949;  143.631;  -13.940;  857.680
927.506;  144.741;   -9.400;  903.500
928.064;  144.577;  -10.940;  877.580
928.622;  143.542;  -13.180;  880.100
929.180;  143.085;  -12.730;  814.180
929.737;  145.095;  -12.840;  808.540
930.295;  148.442;  -11.810;  928.480
930.853;  153.504;  -13.650;  849.100
931.410;  157.578;  -13.580;  821.120
931.968;  159.111;  -12.020;  940.660
932.525;  160.336;  -13.320;  909.380
933.082;  159.344;  -13.800;  811.440
933.640;  163.282;  -11.380;  925.900
934.197;  165.695;  -11.480;  886.360
934.754;  168.599;  -13.220;  897.780
935.312;  166.987;  -14.950;  863.340
935.869;  165.222;  -10.940; 1012.980
936.426;  159.412;  -12.100;  872.800
936.983;  159.351;  -12.930;  889.020
937.540;  160.524;  -14.250;  838.280
938.097;  166.142;  -12.600;  940.120
938.654;  172.970;  -11.260;  898.860
939.211;  175.876;  -13.020;  952.480
939.768;  177.770;  -15.760;  915.420
940.324;  182.394;  -13.920;  904.200
940.881;  180.539;  -11.620;  878.500
941.438;  178.638;   -9.870; 1021.200
941.995;  173.400;  -13.920;  992.560
942.551;  170.936;  -12.830;  875.620
943.108;  171.621;  -11.980;  937.920
943.664;  175.711;  -13.740;  869.340
944.221;  183.891;  -12.670; 1088.140
944.777;  183.558;  -13.250;  869.680
945.334;  179.910;  -13.000;  884.840
945.890;  178.299;  -13.020;  946.480
946.446;  176.473;  -13.880;  947.020
947.003;  177.541;  -12.660;  964.940
947.559;  179.195;   -8.730; 1063.040
948.115;  176.937;  -11.960; 1026.540
948.671;  172.211;  -12.360;  967.300
949.227;  167.764;  -12.700;  859.560
949.783;  165.310;  -13.450;  858.900
950.339;  164.584;  -10.620;  991.000
950.895;  160.595;  -14.770; 1023.840
951.451;  158.482;  -13.650;  925.280
952.007;  160.104;  -11.180;  998.540
952.563;  159.386;  -11.680;  937.780
953.118;  157.755;  -13.280;  904.940
953.674;  158.906;  -12.510;  935.780
954.230;  160.468;  -12.220;  949.640
954.785;  157.615;  -12.190;  936.640
955.341;  152.765;  -12.270;  998.160
955.897;  149.775;  -14.900;  834.660
956.452;  152.191;  -12.520;  953.840
957.008;  152.701;   -9.410; 1083.640
957.563;  149.341;  -11.280; 1009.540
958.118;  145.086;  -13.470;  877.700
958.674;  146.559;  -12.190;  946.780
959.229;  148.541;  -12.760; 1013.980
959.784;  152.324;  -15.710;  832.400
960.339;  157.620;  -12.540; 1001.280
960.894;  156.510;  -11.680;  963.760
961.449;  152.235;  -11.410;  859.960
962.004;  151.735;  -10.430; 1212.840
962.559;  145.277;  -14.040;  860.140
963.114;  143.357;  -14.270;  742.480
963.669;  143.194;  -11.320;  915.500
964.224;  136.992;  -14.620;  874.340
964.779;  125.229;  -14.150;  828.420
965.334;  114.125;  -10.850; 1017.860
965.888;  105.060;  -14.530;  875.360
966.443;  102.238;  -13.520;  972.380
966.998;  102.788;  -13.370;  819.460
967.552;  107.689;   -9.960;  908.380
968.107;  109.119;  -12.360;  868.300
968.661;  112.232;  -12.270;  922.440
969.216;  110.924;  -12.140;  856.280
969.770;  112.632;  -11.860;  917.200
970.324;  113.839;  -12.170;  923.140
970.879;  113.856;  -14.160;  947.180
971.433;  113.334;  -12.940;  952.720
971.987;  110.674;  -10.180;  895.340
972.541;  110.315;  -12.130;  917.100
973.095;  110.673;  -14.980; 1009.460
973.649;  108.943;  -14.480;  809.480
974.203;  111.903;  -13.530;  829.040
974.757;  114.089;  -12.060;  855.220
975.311;  112.200;  -13.240;  872.600
975.865;  110.693;  -12.550;  881.820
976.419;  109.551;  -13.180;  857.400
976.973;  109.762;  -14.100;  849.620
977.526;  108.811;  -13.330;  949.920
978.080;  104.180;  -15.390;  796.780
978.634;  104.403;  -11.670;  921.320
979.187;  102.051;  -10.640;  905.400
979.741;  100.499;  -13.330; 1018.380
980.294;   99.147;  -14.480;  789.160
980.848;   98.822;  -13.420;  717.220
981.401;   98.027;  -12.360;  816.540
981.955;   94.493;  -12.480;  844.300
982.508;   89.905;  -14.000;  746.340
983.061;   89.490;  -10.440;  915.260
983.615;   87.310;  -14.340;  798.800
984.168;   83.891;  -14.950;  770.080
984.721;   84.727;  -13.270;  880.760
985.274;   83.173;  -12.240;  867.500
985.827;   80.757;  -12.720;  834.220
986.380;   77.062;  -14.920;  721.340
986.933;   77.042;  -12.860;  864.800
987.486;   77.075;  -10.440;  861.920
988.039;   75.004;  -11.820;  863.100
988.591;   73.676;  -13.760;  893.260
989.144;   71.076;  -14.080;  737.260
989.697;   71.650;  -13.440;  758.740
990.250;   72.451;  -12.050;  858.100
990.802;   70.501;  -14.550;  755.860
991.355;   71.612;  -10.770;  974.880
991.907;   70.317;  -11.710;  864.320
992.460;   69.022;  -12.650;  753.760
993.012;   66.857;  -13.860;  749.540
993.565;   65.324;  -14.310;  711.360
994.117;   64.912;   -9.920;  950.780
994.669;   61.283;  -13.420;  701.320
995.221;   60.563;  -14.200;  791.920
995.774;   59.581;  -13.400;  787.580
996.326;   59.572;  -11.850;  740.220
996.878;   59.209;  -12.230;  838.420
997.430;   56.531;  -14.260;  699.860
997.982;   55.870;  -11.430;  750.140
998.534;   55.669;  -11.590;  739.060
999.086;   55.609;  -11.960;  738.220
999.638;   54.108;  -13.640;  661.380
1000.190;   54.006;  -13.660;  699.320
1000.741;   53.554;   -9.980;  742.700
1001.293;   53.283;  -11.860;  686.020
1001.845;   51.274;  -14.280;  676.640
1002.396;   51.717;  -12.270;  743.400
1002.948;   51.141;  -13.670;  737.400
1003.500;   50.650;  -12.010;  723.780
1004.051;   50.634;  -11.890;  907.580
1004.603;   49.443;  -11.220;  791.820
1005.154;   45.547;  -13.210;  608.980
1005.705;   46.455;  -11.850;  723.960
1006.257;   44.022;  -13.670;  707.220
1006.808;   43.404;  -12.060;  685.460
1007.359;   42.763;  -10.250;  763.240
1007.910;   42.153;  -13.440;  646.640
1008.461;   42.065;  -13.170;  732.940
1009.013;   40.260;  -14.590;  588.340
1009.564;   42.032;  -12.100;  793.520
1010.115;   39.188;  -14.000;  597.040
1010.665;   38.794;  -15.020;  602.160
1011.216;   39.336;  -12.560;  667.920
1011.767;   39.040;  -11.330;  697.920
1012.318;   39.239;  -11.450;  736.980
1012.869;   37.779;  -11.000;  679.000
1013.419;   37.183;  -11.760;  603.120
1013.970;   37.836;  -11.800;  666.640
1014.521;   37.263;  -14.750;  620.620
1015.071;   36.622;  -14.430;  670.380
1015.622;   35.784;  -14.170;  635.460
1016.172;   35.815;  -11.700;  596.820
1016.723;   36.138;  -13.230;  614.380
1017.273;   35.241;  -16.120;  604.160
1017.823;   35.221;  -13.360;  650.340
1018.374;   34.837;  -13.710;  611.760
1018.924;   35.555;  -11.050;  716.880
1019.474;   35.034;  -14.120;  718.880
1020.024;   33.655;  -12.990;  657.580
1020.574;   34.695;  -12.010;  726.160
1021.124;   35.567;  -12.080;  673.580
1021.674;   32.519;  -15.860;  559.120
1022.224;   34.073;  -11.710;  708.940
1022.774;   33.616;  -13.030;  668.820
1023.324;   34.314;  -11.000;  753.520
1023.874;   35.350;  -13.270;  875.760
1024.423;   32.987;  -14.570;  613.700
1024.973;   32.113;  -12.620;  610.760
1025.523;   31.953;  -12.630;  620.960
1026.072;   31.545;  -14.110;  606.420
1026.622;   31.548;  -15.390;  675.740
1027.172;   32.237;   -9.090;  715.660
1027.721;   30.792;  -12.250;  601.220
1028.270;   31.082;  -15.590;  663.400
1028.820;   30.678;  -13.840;  638.080
1029.369;   30.937;  -13.170;  612.700
1029.918;   30.922;  -14.080;  649.840
1030.468;   29.955;  -13.860;  564.780
1031.017;   30.688;  -12.970;  634.800
1031.566;   29.533;  -12.320;  608.900
1032.115;   30.424;  -13.140;  694.500
1032.664;   28.486;  -14.560;  596.480
1033.213;   29.963;  -11.620;  735.420
1033.762;   29.140;  -13.190;  635.620
1034.311;   28.820;  -13.460;  677.220
1034.860;   29.313;  -15.770;  691.000
1035.408;   28.063;  -13.100;  722.720
1035.957;   29.383;  -12.880;  719.540
1036.506;   27.289;  -13.640;  530.800
1037.055;   29.681;  -12.420;  844.320
1037.603;   28.257;  -13.740;  664.000
1038.152;   26.516;  -13.840;  534.760
1038.700;   27.067;  -10.770;  585.740
1039.249;   26.826;  -13.520;  681.220
1039.797;   26.727;  -13.060;  633.360
1040.345;   27.084;  -11.760;  705.420
1040.894;   26.869;  -10.790;  625.300
1041.442;   25.899;  -15.420;  632.200
1041.990;   24.704;  -14.550;  559.160
1042.538;   24.893;  -15.620;  536.180
1043.087;   25.229;  -14.940;  570.860
1043.635;   26.395;  -12.100;  670.500
1044.183;   25.595;  -13.200;  586.400
1044.731;   25.334;  -11.630;  576.000
1045.279;   25.272;  -14.200;  674.920
1045.827;   27.646;  -12.510;  892.400
1046.374;   23.536;  -14.960;  515.420
1046.922;   23.052;  -11.850;  590.580
1047.470;   25.365;  -13.770;  691.300
1048.018;   24.963;  -15.380;  647.960
1048.565;   24.498;  -14.010;  708.600
1049.113;   23.288;  -14.620;  557.000
1049.660;   23.636;  -14.940;  629.660
1050.208;   23.197;  -14.540;  675.640
1050.755;   22.548;  -13.710;  606.580
1051.303;   23.883;  -11.880;  686.820
1051.850;   23.367;  -12.160;  635.120
1052.397;   20.843;  -15.110;  473.960
1052.945;   21.577;  -14.770;  617.760
1053.492;   23.906;  -12.320;  741.840
1054.039;   23.214;  -13.290;  720.180
1054.586;   21.462;  -15.210;  557.240
1055.133;   22.308;  -12.920;  693.140
1055.680;   22.731;  -12.610;  646.620
1056.227;   22.004;  -12.620;  542.780
1056.774;   23.739;  -13.010;  794.980
1057.321;   20.855;  -16.180;  523.260
1057.868;   21.675;  -11.230;  651.320
1058.415;   21.616;  -10.890;  651.980
1058.961;   21.214;  -12.530;  678.940
1059.508;   20.779;  -14.120;  643.820
1060.055;   20.273;  -13.340;  581.780
1060.601;   21.936;  -12.920;  624.300
1061.148;   20.205;  -14.430;  616.820
1061.694;   19.687;  -14.140;  592.580
1062.241;   20.275;  -12.550;  596.320
1062.787;   20.446;  -13.370;  663.140
1063.334;   22.321;  -12.260;  808.560
1063.880;   20.644;  -10.800;  668.360
1064.426;   20.513;   -9.920;  706.820
1064.972;   19.678;  -12.970;  601.340
1065.518;   18.289;  -14.440;  566.640
1066.065;   19.611;  -12.680;  624.460
1066.611;   18.797;  -13.520;  598.800
1067.157;   19.310;  -11.100;  641.860
1067.703;   18.699;  -14.100;  668.480
1068.249;   18.526;  -13.750;  605.220
1068.794;   18.713;  -11.070;  626.880
1069.340;   18.252;  -13.210;  578.960
1069.886;   18.417;  -14.850;  590.700
1070.432;   17.105;  -14.580;  541.720
1070.977;   17.601;  -12.930;  601.080
1071.523;   18.226;  -11.970;  573.060
1072.068;   17.501;  -13.730;  582.000
1072.614;   16.552;  -14.550;  527.760
1073.160;   18.072;  -13.690;  687.040
1073.705;   16.048;  -14.780;  572.520
1074.250;   16.793;  -15.430;  559.900
1074.796;   17.599;  -11.620;  655.160
1075.341;   18.020;  -11.580;  664.100
1075.886;   16.845;  -13.190;  594.240
1076.431;   16.949;  -13.630;  649.880
1076.976;   15.817;  -11.670;  639.220
1077.521;   16.017;  -11.600;  583.080
1078.067;   15.526;  -13.920;  579.400
1078.612;   16.271;  -12.910;  661.620
1079.156;   15.991;  -15.340;  601.540
1079.701;   16.076;  -12.560;  693.260
1080.246;   16.613;  -12.490;  696.300
1080.791;   16.155;  -14.550;  625.020
1081.336;   16.233;  -15.210;  659.320
1081.880;   16.077;  -11.280;  649.680
1082.425;   15.050;  -12.830;  573.480
1082.970;   16.479;  -11.680;  717.040
1083.514;   15.109;  -15.500;  597.000
1084.059;   14.050;  -11.770;  586.720
1084.603;   14.005;  -13.480;  565.840
1085.147;   14.554;  -13.940;  645.220
1085.692;   15.395;  -13.170;  716.800
1086.236;   12.779;  -15.740;  503.140
1086.780;   15.723;  -10.750;  751.440
1087.325;   14.634;  -14.900;  654.620
1087.869;   13.512;  -15.160;  610.700
1088.413;   14.904;  -11.030;  705.040
1088.957;   12.673;  -15.210;  543.400
1089.501;   14.544;  -12.310;  766.640
1090.045;   14.361;  -12.790;  726.480
1090.589;   12.338;  -14.040;  569.920
1091.133;   12.982;  -12.800;  673.340
1091.676;   13.108;  -13.600;  591.940
1092.220;   12.404;  -12.960;  600.920
1092.764;   13.582;  -10.830;  706.960
1093.307;   13.513;  -12.390;  673.780
1093.851;   12.478;  -15.850;  556.540
1094.395;   12.487;  -12.980;  683.140
1094.938;   12.402;  -13.670;  632.520
1095.482;   12.462;  -12.740;  559.800
1096.025;   12.870;  -13.340;  710.880
1096.568;   13.368;  -10.500;  779.280
1097.112;    9.553;  -13.500;  508.180
1097.655;   12.819;  -13.060;  603.000
1098.198;   10.454;  -13.240;  600.180
1098.741;   11.107;  -15.490;  612.860
1099.285;   11.023;  -13.410;  657.300
1099.828;   10.445;  -15.640;  439.400
1100.371;   10.835;  -13.980;  608.160
1100.914;   11.561;  -13.990;  682.660
1101.457;   11.630;  -15.030;  679.900
1101.999;   11.003;  -12.480;  584.680
1102.542;   11.059;  -12.410;  641.440
1103.085;   10.510;  -14.730;  658.500
1103.628;   11.923;  -12.190;  762.060
1104.170;   10.440;  -12.360;  588.280
1104.713;   11.340;  -13.350;  646.700
1105.256;    9.643;  -14.930;  557.440
1105.798;    8.834;  -15.150;  499.980
1106.341;   11.547;  -13.230;  728.900
1106.883;    9.539;  -14.680;  521.340
1107.425;    9.596;  -14.810;  668.180
1107.968;    9.381;  -12.940;  612.380
1108.510;   11.120;  -10.550;  684.960
1109.052;    8.919;  -15.640;  612.620
1109.594;    8.505;  -14.440;  554.440
1110.136;    9.532;  -11.380;  643.220
1110.679;    8.808;  -13.090;  633.080
1111.221;    9.004;  -14.230;  604.460
1111.763;    8.193;  -14.260;  559.220
1112.304;    8.136;  -14.510;  547.140
1112.846;    9.858;  -14.700;  666.240
1113.388;   11.981;  -12.270;  942.180
1113.930;    8.594;  -13.340;  694.200
1114.472;    8.000;  -12.560;  606.540
1115.013;    7.054;  -14.280;  551.280
1115.555;    7.428;  -14.010;  587.100
1116.097;    6.519;  -14.730;  579.480
1116.638;    7.532;  -12.160;  684.600
1117.180;    9.408;  -14.320;  667.740
1117.721;    7.382;  -15.730;  568.580
1118.262;    7.669;  -13.480;  677.960
1118.804;    8.184;  -11.530;  637.340
1119.345;    7.228;  -13.540;  578.400
1119.886;    8.260;  -14.470;  704.040
1120.427;    6.743;  -13.030;  589.020
1120.969;    6.663;  -13.150;  597.920
1121.510;    6.898;  -13.940;  563.060
1122.051;    6.972;  -12.310;  723.580
1122.592;    5.837;  -13.870;  655.420
1123.133;    5.687;  -12.890;  547.940
1123.673;    7.721;  -13.300;  706.480
1124.214;    5.760;  -14.000;  612.460
1124.755;    6.638;  -13.210;  639.460
1125.296;    6.418;  -13.450;  627.320
1125.836;    7.598;  -12.610;  691.500
1126.377;    5.706;  -15.840;  599.660
1126.918;    6.249;  -11.830;  614.980
1127.458;    5.302;  -11.830;  622.220
1127.999;    7.043;  -11.490;  656.980
1128.539;    6.042;  -12.900;  694.240
1129.079;    5.606;  -14.910;  632.720
1129.620;    4.305;  -12.920;  558.100
1130.160;    4.959;  -14.640;  539.480
1130.700;    6.248;  -13.270;  640.840
1131.240;    5.780;  -14.110;  643.700
1131.781;    5.103;  -13.130;  619.680
1132.321;    5.733;  -15.220;  599.120
1132.861;    3.901;  -15.670;  564.200
1133.401;    3.620;  -13.970;  593.940
1133.941;    5.157;  -13.740;  626.280
1134.481;    4.898;  -13.200;  597.580
1135.020;    4.201;  -14.830;  609.160
1135.560;    5.099;  -14.590;  674.940
1136.100;    2.839;  -13.730;  501.160
1136.640;    4.155;  -15.240;  510.480
1137.179;    3.677;  -14.710;  537.960
1137.719;    3.466;  -14.090;  605.400
1138.258;    3.542;  -12.470;  587.360
1138.798;    4.553;  -12.580;  663.780
1139.337;    2.352;  -16.480;  482.840
1139.877;    4.047;  -13.970;  642.360
1140.416;    6.471;   -9.870;  878.060
1140.955;    3.196;  -14.860;  535.380
1141.494;    4.128;  -14.530;  669.280
1142.034;    2.287;  -13.940;  583.520
1142.573;    4.228;  -11.160;  646.280
1143.112;    2.551;  -15.050;  553.480
1143.651;    2.674;  -15.390;  536.480
1144.190;    3.723;  -12.990;  691.640
1144.729;    3.099;  -12.220;  607.420
1145.267;    3.389;  -14.020;  584.900
1145.806;    3.926;  -12.740;  637.040
1146.345;    2.615;  -14.810;  635.020
1146.884;    3.017;  -12.920;  622.500
1147.422;    1.798;  -13.930;  533.060
1147.961;    3.913;  -11.830;  708.460
1148.500;    3.212;  -12.710;  669.720
1149.038;    3.994;  -14.420;  632.500
1149.577;    3.555;  -13.920;  698.640
1150.115;    0.635;  -17.050;  452.280
1150.653;    1.868;  -14.890;  607.340
1151.192;    1.976;  -15.270;  552.920
1151.730;    2.633;  -13.160;  652.560
1152.268;    2.060;  -15.430;  589.520
1152.806;    1.176;  -15.880;  571.180
1153.344;    0.411;  -13.240;  577.640
1153.882;    2.508;  -13.010;  600.060
1154.421;    0.658;  -16.180;  470.620
1154.958;    1.035;  -13.880;  595.240
1155.496;    2.469;  -13.590;  645.280
1156.034;    2.365;  -11.910;  721.880
1156.572;    2.680;  -12.010;  667.060
1157.110;   -0.249;  -16.250;  473.940
1157.647;    1.847;  -15.230;  676.960
1158.185;    0.576;  -13.770;  564.320
1158.723;    0.286;  -15.300;  509.200
1159.260;    1.372;  -13.130;  701.700
1159.798;    1.468;  -11.300;  658.160
1160.335;    0.951;  -13.210;  631.820

