
Integration time [ms]:   3.276
Averaging Nr. [scans]: 1000
Smoothing Nr. [pixels]: 0
Data measured with spectrometer [name]: 7414430SP
Wave   ;Sample   ;Dark     ;Reference
[nm]   ;[counts] ;[counts] ;[counts] 

288.544;  156.683;    7.793;  793.890
289.143;  161.145;    7.462;  681.602
289.742;  161.858;    8.602;  828.814
290.341;  148.851;    1.321;  789.841
290.940;  138.908;   -0.709;  730.702
291.538;  139.978;    0.881;  881.108
292.137;  138.630;    0.122;  792.581
292.736;  142.471;   -1.929;  975.101
293.335;  138.730;   -8.229;  735.086
293.934;  138.671;   -5.279;  781.677
294.532;  138.299;   -1.369; 1031.958
295.131;  125.106;   -7.641;  834.394
295.730;  125.260;   -8.420;  809.588
296.328;  122.742;   -5.611;  783.442
296.927;  122.998;   -5.781;  779.652
297.525;  123.819;   -6.361;  781.236
298.124;  114.000;  -11.382;  654.009
298.722;  117.956;   -7.641;  761.933
299.321;  116.450;   -6.811;  708.597
299.919;  113.671;   -6.991;  751.918
300.518;  109.454;  -10.362;  689.338
301.116;  111.080;   -9.581;  691.381
301.715;  111.859;   -4.891;  730.222
302.313;  110.695;   -8.801;  704.943
302.911;  105.905;   -8.522;  733.830
303.509;  110.811;   -6.171;  925.627
304.108;  109.125;   -7.311;  760.383
304.706;  107.744;   -8.321;  801.664
305.304;  102.511;  -10.222;  796.707
305.902;  108.235;   -6.021;  784.484
306.500;  102.754;   -4.971;  728.200
307.098;  100.857;   -7.061;  746.560
307.696;   99.595;   -8.801;  780.432
308.294;   99.997;   -6.411;  731.359
308.892;  101.455;   -2.901;  759.769
309.490;   98.129;   -5.041;  712.161
310.088;   95.489;   -5.002;  788.444
310.686;  100.370;   -2.041;  821.749
311.284;   96.467;   -2.351;  766.040
311.882;   93.573;   -4.422;  731.225
312.480;   90.522;   -4.192;  697.167
313.078;   91.446;   -1.172;  808.331
313.675;   93.081;   -2.601;  691.600
314.273;   86.577;   -1.312;  797.837
314.871;   86.418;   -3.942;  589.829
315.468;   84.347;   -2.802;  652.090
316.066;   87.575;   -0.701;  694.427
316.664;   80.709;   -4.362;  656.351
317.261;   83.504;   -2.872;  910.128
317.859;   79.790;   -2.022;  768.735
318.456;   79.462;   -0.531;  830.096
319.054;   75.849;   -3.912;  787.828
319.651;   75.368;   -4.752;  759.928
320.249;   73.589;   -2.602;  810.188
320.846;   71.418;   -0.821;  714.286
321.443;   68.480;   -4.642;  832.135
322.041;   65.493;   -5.002;  812.315
322.638;   63.360;   -3.982;  701.456
323.235;   64.807;   -3.411;  665.683
323.833;   60.975;   -7.361;  740.354
324.430;   56.422;   -8.611;  615.900
325.027;   57.421;   -4.061;  876.855
325.624;   57.410;   -4.031;  644.532
326.221;   54.271;   -7.481;  689.717
326.818;   53.619;   -5.281;  818.332
327.415;   56.193;   -7.460;  748.828
328.012;   55.893;   -5.510;  690.585
328.609;   54.102;   -7.880;  731.389
329.206;   51.636;   -8.331;  778.621
329.803;   51.386;   -5.121;  737.841
330.400;   54.905;   -4.510;  704.260
330.997;   56.861;   -6.441;  817.147
331.594;   55.040;   -8.831;  788.185
332.191;   60.610;   -7.621;  728.722
332.787;   64.126;   -4.591;  844.463
333.384;   62.981;   -7.412;  763.093
333.981;   61.912;   -8.293;  815.687
334.578;   64.877;   -7.052;  708.378
335.174;   67.416;   -3.102;  731.469
335.771;   65.995;   -5.943;  836.456
336.367;   64.776;   -7.393;  710.631
336.964;   67.678;   -4.063;  793.266
337.561;   66.254;   -3.813;  731.112
338.157;   61.460;   -4.654;  911.916
338.754;   59.650;   -7.934;  796.589
339.350;   58.235;   -4.414;  722.493
339.946;   59.175;   -4.664;  773.135
340.543;   51.705;   -6.375;  846.136
341.139;   46.694;   -9.815;  720.836
341.735;   42.503;   -4.526;  772.593
342.332;   41.270;   -4.895;  691.472
342.928;   41.742;   -4.295;  795.394
343.524;   34.668;   -5.476;  761.684
344.120;   31.917;   -5.856;  738.562
344.716;   35.594;   -2.155;  723.717
345.313;   32.487;   -6.275;  795.342
345.909;   27.034;   -8.815;  627.336
346.505;   28.760;   -5.305;  740.247
347.101;   29.631;   -2.674;  827.864
347.697;   29.623;   -4.344;  785.398
348.293;   24.367;   -9.975;  627.244
348.889;   25.155;   -5.774;  745.914
349.485;   24.767;   -5.004;  688.205
350.081;   24.804;   -4.704;  772.592
350.676;   19.830;   -6.635;  691.606
351.272;   24.440;   -4.504;  809.530
351.868;   23.725;   -3.914;  780.497
352.464;   20.627;   -9.044;  723.932
353.059;   17.142;   -8.314;  646.017
353.655;   20.823;   -7.024;  777.063
354.251;   21.244;   -5.343;  759.845
354.846;   15.836;   -8.604;  740.646
355.442;   13.668;   -6.945;  753.071
356.038;   15.546;   -7.564;  751.708
356.633;   15.931;   -5.814;  728.594
357.229;   13.352;   -7.364;  724.757
357.824;   11.392;   -8.024;  703.600
358.420;   11.190;   -9.384;  679.726
359.015;   11.795;   -5.104;  695.357
359.610;   12.849;   -6.854;  763.920
360.206;    6.267;  -10.185;  603.240
360.801;    9.597;   -7.054;  646.503
361.396;   11.122;   -5.034;  725.975
361.992;    7.475;   -8.284;  668.220
362.587;    3.331;   -8.625;  670.160
363.182;    6.250;   -7.674;  689.631
363.777;    7.293;   -5.164;  738.242
364.372;    6.400;   -8.604;  737.314
364.967;    2.692;   -9.055;  680.744
365.563;    7.627;   -6.114;  815.567
366.158;    4.286;   -5.814;  685.161
366.753;    4.281;   -7.854;  649.263
367.348;    1.856;   -7.804;  746.056
367.942;    2.081;   -7.954;  697.298
368.537;    1.766;   -4.984;  754.245
369.132;    1.759;   -8.564;  703.428
369.727;   -2.742;   -8.855;  638.079
370.322;   -0.674;   -6.245;  580.186
370.917;   -1.679;   -6.425;  710.646
371.511;    1.159;   -6.294;  861.834
372.106;   -2.404;   -7.685;  776.964
372.701;   -5.635;   -7.335;  585.988
373.296;   -0.143;   -4.564;  863.135
373.890;   -4.994;  -10.235;  647.840
374.485;   -7.079;   -7.885;  691.199
375.079;   -2.952;   -7.324;  738.685
375.674;   -1.148;   -3.494;  812.970
376.268;   -6.456;   -8.525;  691.759
376.863;  -11.961;  -10.086;  580.327
377.457;   -5.665;   -7.025;  662.490
378.052;   -7.572;   -3.585;  764.884
378.646;   -8.903;   -7.595;  741.167
379.240;   -9.284;   -8.335;  721.176
379.835;   -8.394;   -5.785;  636.978
380.429;  -10.020;   -4.335;  562.557
381.023;  -10.101;   -6.805;  779.205
381.617;  -12.839;   -9.195;  680.106
382.212;   -8.878;   -6.905;  685.303
382.806;   -7.986;   -3.745;  760.690
383.400;  -12.034;   -7.745;  672.281
383.994;  -13.593;   -9.765;  664.870
384.588;  -10.068;   -6.564;  697.701
385.182;   -8.398;   -5.344;  726.624
385.776;   -9.519;   -8.514;  706.875
386.370;  -12.419;   -9.555;  681.968
386.964;  -11.515;   -8.715;  684.155
387.558;  -10.668;   -6.174;  598.360
388.152;  -14.023;   -8.725;  681.959
388.745;  -12.021;   -7.965;  814.707
389.339;   -9.957;   -5.924;  747.642
389.933;  -10.285;   -5.524;  695.370
390.527;  -10.827;   -7.114;  859.029
391.120;  -17.355;  -10.725;  595.318
391.714;  -13.714;   -8.035;  711.633
392.308;  -10.239;   -3.574;  780.253
392.901;  -14.623;   -7.245;  642.460
393.495;  -15.759;   -9.285;  595.414
394.089;  -14.427;   -5.895;  760.452
394.682;  -14.501;   -4.295;  697.188
395.275;  -15.150;   -9.875;  719.927
395.869;  -16.417;   -8.485;  667.314
396.462;  -14.792;   -7.455;  616.609
397.056;  -10.894;   -5.424;  776.621
397.649;  -15.671;   -6.605;  731.575
398.242;  -13.924;   -8.224;  712.645
398.836;  -12.842;   -7.474;  766.408
399.429;  -13.439;   -7.094;  631.041
400.022;  -16.758;   -9.475;  665.902
400.615;  -14.780;   -7.145;  805.609
401.208;  -12.807;   -7.174;  691.451
401.802;  -14.174;   -5.515;  699.329
402.395;  -15.338;   -9.875;  683.502
402.988;  -17.649;   -8.845;  696.627
403.581;  -13.999;   -8.874;  646.878
404.174;  -11.315;   -5.324;  686.568
404.767;  -14.762;   -9.575;  638.583
405.360;  -17.588;  -10.965;  621.445
405.953;  -11.299;   -8.764;  759.034
406.545;  -11.390;   -7.514;  725.342
407.138;  -15.545;  -10.025;  618.350
407.731;  -14.366;  -10.034;  613.303
408.324;   -9.944;   -9.374;  660.554
408.917;  -11.317;   -6.534;  681.864
409.509;  -12.660;   -8.004;  740.396
410.102;  -15.383;   -9.875;  643.948
410.695;   -9.368;   -8.604;  665.758
411.287;  -10.266;   -6.794;  599.821
411.880;  -11.557;   -9.334;  585.421
412.472;  -14.452;  -10.254;  613.092
413.065;  -12.006;   -6.714;  629.408
413.657;   -9.093;   -7.234;  576.678
414.250;   -9.326;  -10.544;  646.681
414.842;  -11.055;   -9.744;  676.353
415.434;   -8.716;   -6.994;  570.463
416.027;   -4.326;   -5.893;  652.196
416.619;   -7.248;   -7.264;  713.400
417.211;   -7.619;  -10.374;  599.352
417.804;   -3.771;   -7.993;  628.499
418.396;   -7.147;   -7.234;  607.643
418.988;   -5.793;   -9.443;  659.238
419.580;   -9.260;  -10.724;  568.276
420.172;   -6.854;  -10.323;  536.196
420.764;   -2.329;   -8.793;  672.482
421.356;   -3.899;  -11.143;  636.898
421.948;   -5.545;   -8.293;  677.661
422.540;    0.591;   -7.893;  680.027
423.132;   -0.374;   -7.082;  600.641
423.724;   -3.621;   -8.653;  561.267
424.316;   -1.956;  -10.213;  621.345
424.908;    2.046;   -9.762;  591.517
425.500;    2.779;   -5.572;  647.978
426.092;    3.260;   -8.422;  648.268
426.683;    1.837;   -9.283;  684.836
427.275;    3.971;   -7.852;  641.471
427.867;    6.773;   -5.272;  668.948
428.458;    6.194;   -7.682;  732.344
429.050;    4.722;  -10.612;  680.749
429.642;    6.750;   -9.882;  743.124
430.233;    7.220;   -6.962;  569.356
430.825;    8.958;   -6.842;  724.809
431.416;    6.114;   -9.672;  698.241
432.008;    9.173;   -6.552;  651.723
432.599;   10.465;   -6.891;  656.073
433.190;    7.238;  -10.912;  637.670
433.782;    6.939;  -11.172;  590.395
434.373;   14.857;   -6.061;  884.765
434.964;   12.325;   -8.251;  602.920
435.556;   10.727;   -9.722;  634.537
436.147;   12.645;   -9.082;  758.490
436.738;   12.922;   -8.041;  701.099
437.329;   17.980;   -7.341;  721.723
437.920;   10.708;   -8.162;  666.688
438.511;   11.553;  -11.802;  564.526
439.103;   17.856;  -10.191;  623.998
439.694;   20.142;   -7.601;  681.583
440.285;   20.803;   -8.541;  764.432
440.876;   18.411;   -9.751;  845.738
441.466;   18.125;   -9.401;  575.162
442.057;   23.821;   -7.760;  665.814
442.648;   22.010;   -9.971;  746.255
443.239;   20.676;  -11.001;  620.477
443.830;   25.880;   -7.990;  704.958
444.421;   27.733;   -7.910;  655.474
445.011;   22.836;   -8.131;  693.619
445.602;   22.738;   -7.111;  743.126
446.193;   25.165;  -10.920;  488.117
446.783;   29.563;   -6.500;  640.397
447.374;   25.454;   -8.671;  692.759
447.964;   26.120;  -10.781;  713.770
448.555;   33.761;   -9.650;  822.742
449.145;   31.340;   -8.660;  662.853
449.736;   30.277;   -8.990;  803.179
450.326;   30.695;   -9.500;  713.626
450.917;   35.699;   -8.680;  675.324
451.507;   34.927;   -7.520;  600.661
452.097;   35.613;   -8.590;  746.267
452.688;   36.420;  -11.340;  742.160
453.278;   35.773;  -10.100;  566.840
453.868;   41.100;   -6.019;  793.550
454.458;   38.684;   -9.440;  651.141
455.048;   39.200;  -10.560;  711.783
455.639;   41.172;  -11.799;  567.096
456.229;   44.376;   -6.899;  710.694
456.819;   46.188;   -7.389;  751.158
457.409;   46.178;  -11.119;  773.993
457.999;   48.990;   -9.289;  737.505
458.589;   49.181;   -6.139;  686.606
459.179;   48.056;   -8.729;  717.658
459.769;   47.010;   -9.789;  627.099
460.358;   52.094;  -10.259;  797.262
460.948;   51.032;   -7.299;  689.503
461.538;   52.476;  -10.289;  660.677
462.128;   50.768;  -11.269;  664.934
462.717;   58.150;   -9.368;  710.326
463.307;   61.087;   -7.908;  705.846
463.897;   57.109;   -9.599;  656.942
464.486;   54.608;   -9.769;  837.128
465.076;   60.152;   -8.048;  733.776
465.666;   64.102;   -9.358;  652.900
466.255;   61.550;   -7.919;  785.651
466.845;   60.704;  -11.689;  666.749
467.434;   64.302;   -7.818;  725.873
468.023;   65.206;   -7.678;  658.357
468.613;   62.053;  -10.939;  713.946
469.202;   66.414;  -10.118;  646.507
469.791;   71.283;   -9.108;  737.811
470.381;   72.447;   -6.058;  742.813
470.970;   71.772;  -10.428;  711.099
471.559;   70.486;  -10.268;  733.291
472.148;   74.523;   -8.448;  675.737
472.738;   77.228;   -6.917;  765.466
473.327;   77.050;  -11.978;  637.529
473.916;   75.819;  -11.888;  737.446
474.505;   80.556;   -9.437;  751.703
475.094;   83.721;   -6.747;  806.570
475.683;   83.077;   -9.367;  797.699
476.272;   84.365;  -12.637;  730.632
476.861;   87.454;  -10.027;  706.754
477.449;   93.411;   -8.716;  728.487
478.038;   87.461;   -9.577;  692.513
478.627;   89.029;   -9.718;  714.852
479.216;   95.535;   -8.947;  769.441
479.805;   97.785;   -6.256;  783.375
480.393;   98.400;   -7.937; 1008.945
480.982;   97.194;   -7.717;  874.501
481.571;  103.856;   -9.266;  858.333
482.159;  104.544;   -7.636;  705.386
482.748;  104.202;   -9.667;  821.385
483.336;  108.340;  -10.376;  858.209
483.925;  109.638;   -7.147;  774.373
484.513;  117.019;   -7.996;  758.962
485.102;  112.389;  -10.027;  810.965
485.690;  121.318;  -10.446; 1011.050
486.278;  121.748;   -8.446;  979.329
486.867;  124.247;   -6.356;  809.662
487.455;  125.788;   -9.136;  898.229
488.043;  127.211;  -10.646;  748.361
488.631;  135.415;   -7.456; 1005.079
489.220;  139.470;   -6.636;  908.626
489.808;  139.371;  -11.036;  741.415
490.396;  147.368;  -10.246;  914.645
490.984;  153.400;   -8.556;  830.161
491.572;  164.241;   -5.886;  940.315
492.160;  170.791;   -9.486;  919.081
492.748;  180.405;  -10.976;  884.341
493.336;  202.076;   -8.776; 1019.693
493.924;  230.416;   -5.465;  958.077
494.512;  263.120;   -9.986; 1066.638
495.100;  300.948;  -10.636; 1103.280
495.687;  365.767;  -10.885; 1206.373
496.275;  441.690;   -8.126; 1150.796
496.863;  517.710;  -10.586; 1281.171
497.451;  620.231;  -11.926; 1386.805
498.038;  720.391;  -10.885; 1556.729
498.626;  836.081;   -6.315; 1741.407
499.214; 1029.560;   -7.326; 2016.609
499.801; 1251.589;  -11.906; 2220.633
500.389; 1543.046;  -10.466; 2312.494
500.976; 1808.271;   -5.236; 2744.849
501.564; 2276.828;   -8.936; 3148.565
502.151; 2885.808;  -13.176; 3515.999
502.738; 3268.207;  -10.646; 3971.274
503.326; 3620.085;   -9.525; 4403.796
503.913; 4027.638;  -10.856; 5161.749
504.500; 4563.414;  -11.586; 5986.420
505.088; 5151.875;  -10.336; 6381.201
505.675; 5940.096;   -6.355; 6925.547
506.262; 6431.529;   -9.046; 7619.060
506.849; 6822.865;  -10.416; 8733.969
507.436; 7229.527;  -10.305; 9790.121
508.023; 7574.462;   -5.496; 9985.472
508.610; 7717.079;   -7.856;10434.618
509.197; 8651.643;  -10.097;11198.435
509.784; 9949.886;  -10.886;12391.194
510.371;11384.014;   -9.315;13603.713
510.958;12439.477;   -9.936;14426.586
511.545;13032.305;   -9.326;15243.775
512.132;13286.038;  -10.075;15945.876
512.719;13823.782;   -7.796;16340.369
513.305;15106.673;  -10.606;18011.766
513.892;16548.838;  -11.486;19754.971
514.479;17825.484;   -9.126;20967.805
515.066;19262.848;   -6.026;22299.793
515.652;19309.377;   -8.466;22908.660
516.239;19867.756;  -10.886;23798.875
516.825;21367.166;  -11.496;25567.275
517.412;22901.793;   -5.796;28154.959
517.998;23990.701;  -10.506;28344.111
518.585;24694.465;  -10.076;27134.219
519.171;24295.855;   -8.315;27268.576
519.758;25020.420;   -8.596;28964.129
520.344;27543.754;   -8.466;30664.494
520.930;26831.770;  -11.006;32550.605
521.516;25363.691;  -10.495;35422.895
522.103;27194.227;   -5.526;38280.004
522.689;29640.701;   -8.746;37835.117
523.275;30631.049;  -11.376;37288.613
523.861;32533.119;  -11.156;37281.395
524.447;31975.637;   -8.135;37846.949
525.033;32378.727;   -7.896;38321.949
525.619;33441.742;  -12.476;38579.285
526.205;33452.625;   -9.516;40622.875
526.791;32978.438;   -6.926;42258.836
527.377;32933.496;   -8.346;42966.902
527.963;34953.945;   -8.717;42018.949
528.549;36301.191;  -11.016;42476.828
529.135;34637.930;   -8.536;41854.852
529.721;34389.230;   -9.666;41237.711
530.306;33525.445;  -10.066;41259.445
530.892;34881.918;  -11.356;41506.047
531.478;36734.430;   -6.596;43559.613
532.063;38705.004;   -8.836;47695.563
532.649;37234.789;  -10.047;50808.324
533.235;37528.520;   -9.746;51787.500
533.820;39705.465;   -6.566;52145.035
534.406;41271.082;  -10.817;51133.488
534.991;43271.633;   -9.416;49996.805
535.576;41808.027;   -9.036;48882.852
536.162;38968.418;   -6.156;46942.285
536.747;39281.613;  -11.607;45711.746
537.333;42170.598;  -11.787;48510.180
537.918;43357.391;  -12.437;50439.891
538.503;42740.680;   -7.196;50863.711
539.088;43520.645;  -10.556;50906.922
539.673;44398.902;   -8.767;52621.965
540.259;41224.621;  -10.026;52368.094
540.844;40885.461;   -7.416;50879.109
541.429;40371.906;   -9.467;52077.777
542.014;39810.813;   -9.527;52716.695
542.599;42981.254;   -9.946;52363.281
543.184;44068.305;   -7.927;53187.137
543.769;44554.563;   -9.297;54697.605
544.354;45064.199;  -10.127;53913.914
544.938;42739.270;   -9.267;49680.164
545.523;40895.168;   -6.506;47386.277
546.108;43237.879;   -9.787;49151.949
546.693;44339.160;  -11.587;51384.637
547.278;44062.117;  -10.986;51853.254
547.862;44397.473;   -8.206;51173.750
548.447;42950.836;  -10.067;51691.395
549.031;42883.777;   -9.637;52456.703
549.616;43470.855;   -9.926;52714.516
550.201;42522.789;   -6.347;52414.598
550.785;43770.820;   -7.917;52355.059
551.370;44707.332;  -10.867;54589.453
551.954;46496.164;   -9.047;58267.348
552.538;45610.859;   -7.827;59062.176
553.123;43367.402;  -10.287;58115.285
553.707;42441.766;  -12.178;56556.285
554.291;39979.625;   -8.717;56201.668
554.876;41870.754;   -7.457;55335.762
555.460;44278.379;  -10.387;54155.703
556.044;45459.664;   -9.618;53721.484
556.628;45902.781;  -11.567;53731.016
557.212;46456.852;   -8.097;54312.531
557.796;48250.496;  -11.077;53797.773
558.380;46747.379;  -11.108;56145.984
558.964;44801.473;   -9.057;57277.930
559.548;42442.766;   -6.977;56459.641
560.132;39248.848;  -11.457;54434.543
560.716;40750.754;  -11.378;54800.617
561.300;42614.023;   -9.577;57606.945
561.884;41265.707;   -7.127;58972.445
562.467;40158.723;   -7.118;57327.570
563.051;38507.023;  -13.358;54962.434
563.635;36448.313;  -10.178;52594.473
564.219;38190.469;   -7.837;50610.410
564.802;41309.773;  -11.398;49551.180
565.386;41788.738;  -12.788;48370.953
565.969;43100.535;   -9.077;48178.871
566.553;42618.035;   -6.207;49957.305
567.136;41218.887;   -8.568;50369.594
567.720;42336.711;  -11.868;49492.004
568.303;43199.172;   -8.268;50616.352
568.887;42029.945;   -8.698;50727.148
569.470;39493.813;   -6.808;51698.379
570.053;37169.133;  -13.188;52122.078
570.637;34998.449;  -12.037;52536.438
571.220;35420.941;   -8.577;51186.098
571.803;35574.172;   -8.498;51032.762
572.386;37721.961;  -10.498;49609.887
572.969;38421.605;   -9.388;48285.926
573.552;38612.762;   -8.338;47624.285
574.135;37594.867;   -8.518;45498.641
574.718;33650.441;  -13.628;41970.434
575.301;33391.879;  -10.893;41447.137
575.884;33133.320;   -8.158;40923.836
576.467;38019.723;  -10.328;45267.723
577.050;38985.031;  -13.058;48175.543
577.633;37876.227;   -9.458;47729.328
578.216;34816.316;   -8.928;47579.793
578.799;32899.129;   -9.358;47820.996
579.381;34432.836;  -11.388;48115.551
579.964;34496.938;  -11.718;47333.766
580.547;33412.535;   -8.588;46668.969
581.129;34519.453;   -8.859;44466.141
581.712;36430.797;  -10.729;44164.922
582.294;35802.309;  -11.118;46477.855
582.877;36453.180;   -5.218;48244.254
583.459;36543.297;   -8.679;47437.895
584.042;37569.395;  -10.709;46943.219
584.624;35975.125;  -11.669;46792.227
585.206;34777.555;   -8.218;46557.250
585.789;35108.766;  -10.569;45793.773
586.371;35370.973;  -11.859;43836.391
586.953;36626.457;  -10.719;42972.492
587.536;38092.313;   -7.198;42487.211
588.118;36746.102;   -8.720;42086.414
588.700;35336.320;  -10.439;43389.930
589.282;32843.770;   -9.198;43646.039
589.864;30689.277;   -9.199;43438.109
590.446;30254.365;  -11.319;43151.926
591.028;29116.742;  -11.159;42781.867
591.610;28014.961;  -11.779;42839.098
592.192;27695.869;   -7.668;42820.402
592.774;26438.520;  -11.949;40724.277
593.356;26210.461;  -12.129;39874.789
593.937;28424.406;  -10.669;39980.648
594.519;32068.783;   -6.509;42069.633
595.101;32694.105;  -10.849;42976.031
595.683;31517.750;  -11.679;44084.441
596.264;30654.459;   -9.049;43478.797
596.846;30476.201;   -8.849;43803.672
597.427;30350.387;   -9.570;42986.934
598.009;32130.543;  -12.620;42832.219
598.591;32080.912;  -10.039;42580.086
599.172;34373.891;  -10.369;43061.805
599.753;36622.195;   -9.140;41691.469
600.335;36081.555;  -11.430;40692.520
600.916;33560.176;   -9.939;39982.422
601.498;30554.234;   -8.479;40318.617
602.079;29887.188;  -10.920;40670.609
602.660;29418.238;  -11.480;41450.898
603.241;30336.176;  -11.699;41137.738
603.823;30671.463;   -9.579;38868.797
604.404;30335.096;  -10.620;38182.785
604.985;33061.039;  -10.450;38078.047
605.566;33638.156;   -9.129;38056.633
606.147;34660.090;   -7.510;37020.418
606.728;33541.840;  -10.660;37883.359
607.309;31704.715;  -11.740;38748.273
607.890;30954.482;   -9.759;38850.230
608.471;29826.012;   -8.250;37457.918
609.051;30169.150;   -9.240;36066.457
609.632;29636.873;  -12.120;35991.074
610.213;29161.957;   -9.110;37402.641
610.794;30515.586;   -8.030;38383.363
611.374;29669.805;   -8.110;40562.387
611.955;29677.564;  -13.560;38533.727
612.536;30685.574;  -11.400;36951.789
613.116;30121.432;   -8.070;37197.891
613.697;30752.584;  -10.830;38411.125
614.277;30411.197;  -11.641;38673.938
614.858;29755.543;  -13.310;37075.863
615.438;29815.400;   -7.460;35092.906
616.019;27995.779;   -7.601;33666.301
616.599;28671.797;  -12.020;34189.023
617.179;28569.066;  -11.780;36952.047
617.760;27322.104;   -8.570;39582.574
618.340;27722.949;  -11.471;38943.977
618.920;28040.656;  -11.170;37594.156
619.500;29112.820;  -11.071;37866.938
620.080;29779.734;   -7.750;37869.043
620.660;30073.113;  -12.711;36868.617
621.241;30604.152;  -10.211;36352.309
621.821;29984.547;  -10.961;35459.520
622.401;30248.357;   -7.720;35207.414
622.980;32230.201;   -8.981;35980.422
623.560;30826.051;   -9.331;37351.328
624.140;26540.904;   -9.850;34388.582
624.720;22871.131;   -7.451;32368.764
625.300;22730.973;   -9.070;32638.629
625.880;26615.584;  -12.601;34599.035
626.459;29823.096;  -11.751;36831.738
627.039;30114.541;   -9.281;38299.098
627.619;29209.240;   -8.801;38289.574
628.198;29199.824;  -12.071;37220.695
628.778;29789.492;   -9.461;37632.563
629.357;30423.836;   -8.491;38003.012
629.937;30375.395;   -9.721;38402.039
630.516;31423.771;   -9.951;37868.801
631.096;32706.365;  -11.731;35760.410
631.675;34908.941;   -8.572;35225.219
632.254;34636.727;  -11.282;35130.289
632.834;33255.836;  -13.322;35794.570
633.413;34008.313;  -10.301;35788.922
633.992;34140.281;   -8.582;34532.863
634.571;34559.711;   -8.352;33590.113
635.151;33836.781;  -11.912;34943.863
635.730;31679.742;  -10.511;35352.523
636.309;31454.354;   -7.731;35366.605
636.888;31001.936;   -9.952;36165.637
637.467;30382.422;  -11.672;37515.902
638.046;28754.357;   -8.901;39288.695
638.625;27957.975;   -7.912;38279.699
639.204;27243.986;  -10.022;37741.598
639.782;28701.264;  -12.252;38364.551
640.361;30664.996;  -10.041;36740.621
640.940;30192.908;  -11.161;34950.082
641.519;30006.291;   -9.701;34137.398
642.097;31282.221;  -11.271;35654.258
642.676;31211.734;   -8.651;35637.957
643.255;30035.750;   -8.711;36567.074
643.833;29915.049;   -9.581;37809.434
644.412;31048.850;  -13.711;37337.293
644.990;32404.629;  -11.811;37018.531
645.569;35060.293;   -9.411;36518.469
646.147;35746.762;  -10.291;36186.430
646.726;33668.199;  -12.401;36267.688
647.304;32238.123;  -10.411;36647.625
647.882;32803.961;   -9.651;39286.742
648.461;32191.854;   -9.631;39157.703
649.039;30006.902;  -11.881;35412.883
649.617;30063.680;   -9.661;34744.918
650.195;30304.516;   -9.301;35403.098
650.773;29722.469;  -10.511;35053.797
651.352;29732.934;  -11.521;33756.816
651.930;28734.895;  -12.211;31868.773
652.508;27808.762;   -9.171;33121.551
653.086;29036.580;   -9.371;33564.793
653.663;31178.092;  -13.161;34054.668
654.241;29996.885;  -13.031;35693.309
654.819;28118.145;   -9.371;36422.906
655.397;28801.521;  -10.511;38213.484
655.975;28944.955;  -10.371;39507.625
656.553;30015.816;  -10.051;39498.223
657.130;30750.143;  -10.061;40395.480
657.708;27722.125;   -9.561;39242.020
658.286;24976.852;  -11.511;38920.020
658.863;25615.059;  -10.261;40202.898
659.441;28530.170;   -7.531;39677.938
660.018;30788.170;   -9.501;40413.355
660.596;31610.619;  -13.301;39931.414
661.173;34250.066;  -11.211;39604.531
661.750;32994.805;   -9.951;39700.070
662.328;30505.252;   -9.390;39292.809
662.905;29212.059;  -11.330;38235.648
663.482;26270.498;   -9.050;36212.305
664.060;24229.992;   -8.240;35944.945
664.637;28398.711;  -10.050;35170.785
665.214;32932.695;  -11.760;34197.523
665.791;31563.783;  -10.530;34549.520
666.368;31070.143;   -9.690;35118.578
666.945;31705.377;   -9.320;36019.418
667.522;32643.738;  -11.860;36048.438
668.099;32070.266;  -10.770;36243.914
668.676;32473.283;   -6.260;35958.875
669.253;34547.094;   -7.000;37384.730
669.830;34844.148;  -10.190;36779.629
670.407;33525.027;   -9.550;35231.289
670.984;32514.068;   -9.260;35544.270
671.560;30723.689;   -9.280;35466.867
672.137;29059.627;  -11.810;34280.863
672.714;29279.922;  -11.490;34632.863
673.290;30306.205;   -7.740;35135.422
673.867;30795.605;  -10.660;36114.480
674.443;30216.857;  -12.230;36152.859
675.020;28950.492;  -10.450;35327.238
675.596;27637.361;   -9.260;35795.176
676.173;28217.908;  -10.780;35430.355
676.749;28729.629;  -13.690;33549.516
677.326;29948.473;  -11.980;32210.012
677.902;27915.463;   -8.630;32068.871
678.478;25858.326;  -10.730;32583.891
679.054;27658.012;  -10.520;32088.928
679.631;29121.959;  -11.920;30978.848
680.207;30463.260;   -7.490;33160.887
680.783;31524.326;   -9.860;35570.363
681.359;32082.402;  -13.380;36125.184
681.935;31202.543;  -12.480;35240.922
682.511;31931.090;   -7.900;34429.961
683.087;32427.869;   -7.710;34463.680
683.663;33054.488;  -11.480;34648.898
684.239;32549.898;  -14.090;34546.457
684.815;33137.313;   -7.560;35586.375
685.390;33062.441;   -9.910;35821.895
685.966;32627.080;  -11.159;35085.871
686.542;33408.117;  -11.169;34198.230
687.118;32061.266;   -5.959;32847.707
687.693;32221.092;  -10.329;32794.027
688.269;31101.486;  -12.059;33072.367
688.844;31938.662;  -10.909;33141.664
689.420;33444.246;   -8.019;33965.742
689.995;30138.039;   -8.399;34655.523
690.571;28854.453;  -10.949;33576.742
691.146;28154.838;   -9.619;32657.219
691.722;26274.461;   -8.999;32526.979
692.297;25832.281;  -11.589;33014.617
692.872;27028.627;  -11.739;34012.254
693.448;27292.680;  -11.059;34237.434
694.023;28827.029;  -10.139;34142.672
694.598;30636.621;   -9.029;34132.031
695.173;30000.791;  -13.319;34205.250
695.748;27301.381;  -10.169;32882.488
696.323;25147.945;   -8.339;32864.906
696.898;25214.471;   -8.169;33170.004
697.473;28561.082;  -12.309;32432.984
698.048;28508.174;  -10.989;31649.303
698.623;27367.963;   -9.329;30778.141
699.198;28758.264;   -9.849;31140.119
699.773;30056.811;  -12.329;31764.299
700.348;30009.855;  -10.389;31780.816
700.922;28377.605;   -9.269;32046.375
701.497;26770.758;   -9.329;32603.574
702.072;28530.445;  -10.789;34799.871
702.646;28596.297;  -10.839;35793.172
703.221;29100.115;   -9.099;35201.590
703.795;29292.320;  -10.939;34764.527
704.370;27640.148;  -12.859;34307.367
704.944;28881.580;  -11.559;33509.887
705.519;30299.682;   -7.939;31388.584
706.093;32346.586;  -10.499;31340.104
706.668;33305.473;  -11.289;32630.281
707.242;32113.303;  -11.509;32728.779
707.816;30400.988;   -9.639;32947.238
708.390;30072.121;  -11.429;33277.855
708.965;31108.611;  -11.869;33834.336
709.539;31112.109;  -11.689;33709.273
710.113;30432.611;  -10.478;33044.313
710.687;27646.916;  -10.228;31953.992
711.261;26948.447;  -13.698;30505.949
711.835;26698.430;  -13.378;30262.369
712.409;26516.291;   -9.698;31254.447
712.983;26188.859;  -11.898;32754.986
713.557;25215.932;  -15.138;34018.824
714.131;26483.451;  -14.098;34579.625
714.704;26349.516;   -9.958;33890.262
715.278;25716.734;  -10.028;33531.102
715.852;24853.131;  -11.148;33601.660
716.425;24248.689;   -9.068;33515.117
716.999;25844.959;  -10.038;33185.555
717.573;26646.271;   -9.798;33905.996
718.146;27810.842;  -12.378;35199.293
718.720;28329.777;  -11.918;35060.551
719.293;27478.047;   -8.088;34973.230
719.867;26613.053;  -10.888;36394.449
720.440;27461.703;  -11.938;36663.008
721.013;29204.002;  -12.818;35102.426
721.587;30785.371;  -10.298;33985.266
722.160;30811.061;  -10.048;33524.965
722.733;28744.904;  -12.108;32987.043
723.306;26172.820;  -10.818;33066.301
723.880;26311.648;   -8.908;33399.500
724.453;25547.268;   -9.878;33468.297
725.026;25846.512;  -11.188;33816.637
725.599;26151.408;  -11.678;32797.996
726.172;25543.164;   -9.618;33187.434
726.745;26462.697;   -8.258;35136.613
727.318;29342.963;  -12.978;35751.730
727.891;31582.768;  -12.148;35890.430
728.463;32545.303;   -8.968;34822.090
729.036;32535.627;  -10.188;32895.086
729.609;29991.027;  -11.788;31823.225
730.182;28273.203;  -11.788;31445.283
730.754;27701.227;  -10.268;32373.223
731.327;27457.002;   -9.998;33676.820
731.900;26641.215;  -12.228;33417.000
732.472;25673.791;  -13.848;31978.498
733.045;25585.363;   -8.698;30368.777
733.617;25011.176;  -10.607;30574.215
734.190;23665.500;  -11.507;31280.975
734.762;23951.348;  -13.647;31674.412
735.334;24932.727;   -9.767;31247.291
735.907;24894.418;   -9.897;29876.211
736.479;22952.180;  -11.637;29808.488
737.051;22769.750;   -9.567;30233.547
737.623;23825.680;   -8.187;31469.086
738.195;25500.914;  -11.187;31784.225
738.768;25876.971;  -12.337;32120.523
739.340;25256.102;  -12.227;32094.342
739.912;24820.449;  -11.057;31312.680
740.484;25707.740;  -10.207;31946.238
741.056;26855.615;  -10.047;32984.059
741.628;26429.959;  -13.627;33897.715
742.199;27158.176;   -7.177;33213.016
742.771;25492.578;  -10.797;31369.113
743.343;24038.434;  -11.997;31865.473
743.915;24153.076;  -12.867;32388.631
744.487;24789.309;   -7.617;31079.568
745.058;25974.441;   -9.557;30570.107
745.630;25512.797;   -9.877;29970.127
746.201;24134.385;  -14.177;29186.766
746.773;23894.475;   -9.237;28805.723
747.344;24293.467;   -9.847;29591.223
747.916;24447.072;  -11.657;31412.201
748.487;23955.090;  -10.587;32194.898
749.059;23725.879;   -8.707;32533.719
749.630;22605.297;  -10.537;32158.518
750.201;22705.854;  -11.687;30855.395
750.773;22861.803;  -11.647;28622.555
751.344;24281.840;   -7.147;28405.732
751.915;24316.355;   -9.757;28461.551
752.486;23903.158;  -12.427;27842.850
753.057;22341.705;  -12.227;27845.008
753.628;21762.703;  -10.417;27728.107
754.199;21747.771;  -11.767;27381.086
754.770;21318.072;  -11.187;25882.203
755.341;21197.775;  -10.507;25886.184
755.912;21674.055;   -9.387;26050.861
756.483;21889.123;  -10.647;26798.779
757.054;21219.344;  -11.837;27048.238
757.625;19434.912;  -12.716;26294.838
758.195;19147.635;   -9.666;26142.076
758.766;20184.969;   -8.656;26392.234
759.337;19953.266;  -12.856;26334.594
759.907;19325.387;  -13.366;27579.652
760.478;18524.539;   -8.576;28352.770
761.048;18986.213;  -10.526;27325.088
761.619;19396.807;  -11.116;26460.428
762.189;18915.018;  -12.136;26029.826
762.760;18946.074;   -9.456;26430.145
763.330;19208.803;   -7.136;26670.902
763.900;19072.494;  -11.786;26603.021
764.471;18382.096;  -11.546;25542.740
765.041;18334.537;   -8.096;24358.459
765.611;18616.729;   -8.876;23991.297
766.181;18590.400;  -12.196;24470.236
766.751;19103.643;  -11.636;24845.975
767.321;19266.645;  -10.156;24533.633
767.891;19112.512;  -11.766;24916.492
768.461;18781.586;  -14.936;24776.771
769.031;17890.947;  -12.356;24757.988
769.601;17537.500;   -7.526;24181.088
770.171;18011.191;  -10.766;23670.387
770.741;18884.264;  -13.176;22960.045
771.311;18566.045;  -10.616;22917.523
771.880;17041.111;   -9.576;23562.941
772.450;16359.270;  -10.336;24216.500
773.020;16651.520;  -13.516;24140.398
773.589;16624.924;  -13.466;24414.857
774.159;16135.336;   -8.686;23858.717
774.729;15441.995;   -9.476;22942.135
775.298;15487.834;  -13.666;22324.033
775.867;15655.617;  -11.716;21140.313
776.437;15159.336;   -9.906;20838.092
777.006;15020.411;  -12.166;20599.510
777.576;16400.928;  -12.356;20508.809
778.145;15687.646;  -11.646;20732.947
778.714;14347.081;   -8.226;21062.465
779.283;13767.338;   -9.556;20949.664
779.853;13561.714;  -14.116;20508.623
780.422;13974.315;  -11.506;20649.082
780.991;14526.674;   -9.556;21527.520
781.560;15164.786;   -9.095;22632.658
782.129;13989.936;  -12.135;23048.277
782.698;12749.151;  -10.865;23438.555
783.267;12160.667;   -9.335;23267.734
783.836;12477.459;  -11.045;22415.133
784.404;13192.488;  -13.865;20443.152
784.973;13502.774;  -13.095;19699.150
785.542;13530.986;  -11.575;19763.828
786.111;13319.649;   -9.705;20341.408
786.679;13006.136;  -12.105;20207.967
787.248;12540.184;  -12.455;19516.465
787.817;12310.125;  -11.535;18900.363
788.385;12182.887;   -9.765;17879.121
788.954;12135.733;  -14.005;17658.301
789.522;11981.357;  -11.955;17788.879
790.090;11052.171;  -10.135;18118.277
790.659;10272.799;  -10.975;18338.736
791.227;10462.740;  -13.375;18508.615
791.795;10858.578;  -12.375;17898.254
792.364;11062.859;  -10.725;17295.133
792.932;11343.750;   -9.715;16822.051
793.500;11099.841;  -12.675;17040.148
794.068;11476.010;  -13.495;17179.787
794.636;11566.737;  -10.885;16664.246
795.204;11143.016;  -11.045;16524.545
795.772;11038.970;  -13.175;17274.564
796.340;10732.071;  -12.445;17891.002
796.908;10870.969;   -9.735;17648.561
797.476;11203.589;   -9.815;17064.080
798.044;11024.105;  -13.985;16672.777
798.612;10601.001;  -13.115;17023.996
799.180; 9646.488;  -10.185;16561.615
799.747; 9291.013;   -9.055;15962.773
800.315; 9502.196;  -12.385;15296.992
800.883; 8846.010;  -15.035;14801.771
801.450; 8105.004;  -10.365;14534.430
802.018; 7843.892;   -9.855;14173.248
802.585; 7823.940;  -11.905;14029.547
803.153; 8036.486;  -11.585;13836.846
803.720; 7819.742;   -9.095;13567.324
804.287; 7702.748;   -9.135;13360.622
804.855; 7852.688;  -11.604;13681.981
805.422; 8301.440;  -11.794;13536.560
805.989; 8588.789;  -10.734;13355.958
806.556; 8487.610;  -10.444;13747.896
807.124; 8723.519;  -12.764;13987.376
807.691; 9086.237;  -12.964;14038.674
808.258; 9067.036;  -11.134;14120.152
808.825; 8943.219;   -9.854;13860.111
809.392; 8435.964;  -10.504;13268.790
809.959; 7695.284;  -13.054;12680.389
810.526; 7074.372;   -8.294;12427.308
811.093; 6489.120;   -8.394;12030.105
811.659; 6285.201;  -12.304;11653.664
812.226; 6450.236;  -13.944;11637.183
812.793; 6824.372;  -10.484;11611.521
813.360; 6919.126;  -10.144;11885.181
813.926; 6878.837;  -11.684;12770.539
814.493; 6816.221;  -13.644;12677.638
815.060; 6718.611;   -9.724;11974.336
815.626; 6859.431;   -9.854;11594.715
816.193; 6811.354;  -13.254;11579.474
816.759; 6171.326;  -13.204;11666.972
817.325; 5789.082;   -9.434;11325.530
817.892; 5737.434;  -10.134;11105.369
818.458; 5930.360;  -13.474;10843.928
819.024; 6345.815;  -11.854;10714.406
819.591; 6418.947;  -10.244;10469.165
820.157; 6213.911;  -10.704;10235.523
820.723; 6176.622;  -12.324;10847.563
821.289; 6045.679;   -9.444;11040.980
821.855; 6054.388;   -8.374;10357.100
822.421; 6295.098;  -10.234; 9978.918
822.987; 6279.459;  -13.294; 9754.177
823.553; 6063.317;  -10.884;10065.755
824.119; 5886.306;   -8.884;10036.294
824.685; 5454.244;   -6.784;10029.192
825.251; 5378.440;  -12.004;10199.230
825.816; 5130.310;  -11.474; 9820.189
826.382; 4941.206;   -9.174; 9297.248
826.948; 5215.648;   -9.214; 9381.347
827.513; 5625.144;  -10.774; 9450.726
828.079; 5720.046;  -11.924; 9472.444
828.645; 5538.750;  -10.543; 9292.643
829.210; 5429.688;  -10.533; 9065.341
829.776; 5366.979;  -10.753; 9132.620
830.341; 5506.262;  -10.173; 9092.878
830.906; 5568.390;  -10.743; 9078.557
831.472; 5386.514;  -11.113; 8534.535
832.037; 5052.542;  -10.603; 8677.874
832.602; 4943.016;  -13.323; 8628.692
833.167; 4744.547;  -10.823; 8879.031
833.733; 4642.521;  -10.113; 9189.790
834.298; 4527.000;  -13.583; 9052.608
834.863; 4709.391;  -12.703; 8895.087
835.428; 4897.755;  -10.523; 8824.266
835.993; 4783.965;   -6.963; 8845.385
836.558; 4770.044;  -10.763; 8888.563
837.123; 4992.221;   -9.903; 8966.582
837.688; 5387.978;   -9.913; 8617.860
838.253; 5423.203;  -10.283; 8590.699
838.817; 5111.492;  -12.963; 8443.797
839.382; 5022.267;  -14.243; 8799.356
839.947; 5134.123;  -10.733; 8810.595
840.511; 5102.789;   -9.383; 8796.394
841.076; 4953.288;  -12.563; 8347.231
841.641; 4828.710;  -12.953; 8224.330
842.205; 4713.496;   -7.043; 8223.349
842.770; 4535.878;   -8.163; 8622.107
843.334; 4721.993;  -12.503; 8410.386
843.898; 4872.736;  -11.693; 8337.465
844.463; 4426.886;  -10.203; 8506.283
845.027; 4131.828;   -9.533; 8280.962
845.591; 4174.536;  -13.443; 8231.141
846.156; 4215.273;  -13.143; 7969.179
846.720; 4029.692;   -9.433; 7768.278
847.284; 3933.526;  -11.033; 7630.957
847.848; 3906.771;  -10.403; 7472.395
848.412; 3726.168;  -11.553; 7437.394
848.976; 3639.500;   -8.393; 7674.592
849.540; 3605.685;   -8.713; 7836.011
850.104; 3562.269;  -12.463; 7913.669
850.668; 3625.731;  -12.973; 7694.508
851.232; 3607.500;  -10.793; 7756.887
851.796; 3668.312;  -10.662; 7926.545
852.359; 3772.722;  -13.082; 7827.844
852.923; 3740.381;  -12.192; 7641.163
853.487; 3714.384;  -11.912; 7342.501
854.050; 3554.976;  -10.892; 7042.820
854.614; 3621.033;  -13.992; 7151.338
855.177; 3690.372;  -11.732; 7105.077
855.741; 3563.051;   -8.962; 6989.675
856.304; 3428.289;   -9.442; 6596.634
856.868; 3302.889;  -14.192; 6356.272
857.431; 3253.562;  -12.702; 6468.571
857.995; 3256.238;   -9.942; 6373.210
858.558; 3333.267;   -9.112; 6324.448
859.121; 3197.489;  -12.932; 6408.327
859.684; 3008.769;  -13.442; 6347.886
860.247; 2955.922;  -10.632; 6321.264
860.810; 2926.640;  -11.272; 6301.903
861.374; 2861.234;   -9.832; 6607.881
861.937; 2762.226;  -11.762; 6408.200
862.500; 2757.080;   -9.722; 6572.639
863.062; 2731.750;  -10.512; 6387.297
863.625; 2712.885;  -11.232; 6190.836
864.188; 2737.552;  -14.112; 5807.254
864.751; 2746.314;  -11.302; 5682.413
865.314; 2641.388;  -10.112; 5547.492
865.876; 2477.400;  -12.182; 5500.150
866.439; 2318.872;  -10.722; 5415.909
867.002; 2219.834;   -9.252; 5501.567
867.564; 2275.233;   -9.572; 5413.946
868.127; 2316.432;  -13.142; 5160.325
868.689; 2384.865;  -12.902; 5133.183
869.252; 2478.147;   -9.732; 5252.382
869.814; 2398.896;   -9.432; 5297.141
870.377; 2307.344;  -11.552; 5390.919
870.939; 2315.931;   -9.052; 5599.898
871.501; 2261.743;  -10.982; 5248.336
872.063; 2145.767;  -12.292; 4854.235
872.626; 2078.084;  -14.912; 4817.074
873.188; 1990.622;  -13.112; 4987.732
873.750; 1951.190;  -13.442; 4868.651
874.312; 1901.278;   -9.402; 4779.330
874.874; 1856.744;  -11.062; 4866.348
875.436; 1762.456;  -13.931; 4718.887
875.998; 1657.230;   -9.561; 4660.005
876.560; 1649.667;  -11.321; 4462.964
877.122; 1714.668;  -12.221; 4145.042
877.683; 1821.389;  -12.191; 4056.481
878.245; 1847.412;  -12.101; 3950.740
878.807; 1857.845;   -8.971; 4058.958
879.369; 1794.740;  -12.071; 3954.677
879.930; 1667.263;  -14.621; 3941.495
880.492; 1593.092;  -10.311; 4067.014
881.053; 1594.105;  -10.901; 3859.633
881.615; 1574.753;  -14.411; 3776.071
882.176; 1508.109;  -13.761; 3734.750
882.738; 1443.839;   -9.181; 3678.489
883.299; 1441.308;  -11.791; 3405.407
883.860; 1458.017;  -13.121; 3351.106
884.422; 1402.914;  -11.211; 3394.044
884.983; 1312.123;  -10.091; 3166.443
885.544; 1265.311;   -8.461; 3189.802
886.105; 1210.107;  -12.361; 3160.360
886.666; 1149.790;  -14.141; 3093.059
887.227; 1114.625;  -11.361; 2941.957
887.788; 1057.585;  -11.401; 2974.836
888.349;  965.880;  -13.791; 2721.214
888.910;  926.489;  -13.191; 2696.493
889.471;  896.443;   -9.881; 2560.172
890.032;  904.586;   -9.881; 2558.190
890.593;  894.798;  -10.371; 2567.669
891.153;  808.537;  -13.301; 2460.307
891.714;  699.365;  -11.431; 2372.046
892.275;  657.750;  -11.291; 2309.505
892.835;  668.736;  -11.471; 2382.543
893.396;  657.287;  -11.541; 2295.502
893.956;  626.108;  -11.181; 2162.420
894.517;  590.054;  -11.741; 2125.439
895.077;  541.007;  -11.671; 2086.978
895.638;  500.980;  -11.311; 2126.316
896.198;  487.141;   -9.831; 1838.275
896.758;  473.339;   -8.421; 1892.813
897.319;  453.729;  -12.351; 1792.232
897.879;  434.319;  -13.511; 1762.751
898.439;  402.460;  -12.001; 1661.149
898.999;  381.671;  -10.180; 1781.468
899.559;  377.950;  -12.030; 1703.347
900.119;  368.132;  -15.710; 1537.525
900.679;  354.295;   -8.900; 1638.384
901.239;  334.243;   -8.340; 1527.902
901.799;  306.018;  -13.910; 1456.441
902.359;  284.814;  -13.460; 1357.140
902.919;  277.339;  -11.490; 1331.118
903.479;  276.461;  -12.110; 1317.257
904.038;  270.858;  -11.720; 1262.595
904.598;  262.884;  -13.610; 1152.034
905.158;  251.855;  -11.040; 1240.893
905.717;  235.539;  -10.900; 1233.691
906.277;  226.345;  -15.080; 1217.330
906.836;  224.407;  -13.380; 1222.408
907.396;  222.016;  -10.780; 1193.047
907.955;  215.536;   -8.500; 1182.526
908.515;  210.070;  -12.760; 1099.364
909.074;  208.923;  -11.900; 1092.863
909.633;  208.550;   -8.950; 1069.121
910.192;  206.032;   -8.770; 1196.460
910.752;  194.461;  -12.390; 1029.960
911.311;  184.358;  -13.680; 1009.780
911.870;  174.989;  -12.370;  971.460
912.429;  169.485;  -10.900; 1094.080
912.988;  166.884;  -11.690; 1081.060
913.547;  165.169;  -13.240;  940.380
914.106;  162.980;  -11.990;  999.420
914.665;  161.665;   -9.990;  984.020
915.224;  159.833;  -12.880; 1035.760
915.782;  157.321;  -12.350;  922.560
916.341;  156.067;   -9.110; 1049.840
916.900;  153.457;   -9.270;  925.260
917.458;  151.786;  -13.240;  884.220
918.017;  150.641;  -13.550;  942.600
918.576;  149.291;  -12.320;  904.440
919.134;  147.035;  -11.490;  837.980
919.693;  145.033;  -13.670;  893.060
920.251;  143.863;  -15.470;  876.500
920.809;  144.425;  -11.290;  839.580
921.368;  143.813;  -10.210;  885.360
921.926;  140.377;  -12.140;  842.940
922.484;  138.792;  -13.080;  903.360
923.042;  136.742;  -11.720;  880.340
923.601;  138.003;   -7.480;  998.680
924.159;  135.760;  -11.570;  935.560
924.717;  133.933;  -13.840;  841.080
925.275;  134.099;  -10.640;  903.240
925.833;  131.871;  -11.540;  779.320
926.391;  133.746;  -12.960;  938.380
926.949;  134.530;  -14.130;  857.680
927.506;  133.873;  -11.750;  903.500
928.064;  133.520;  -10.250;  877.580
928.622;  134.329;  -13.030;  880.100
929.180;  136.583;  -13.400;  814.180
929.737;  138.524;  -10.700;  808.540
930.295;  141.877;  -10.070;  928.480
930.853;  140.171;  -11.960;  849.100
931.410;  140.946;  -13.120;  821.120
931.968;  143.621;  -10.770;  940.660
932.525;  143.117;  -10.680;  909.380
933.082;  142.669;  -13.130;  811.440
933.640;  143.889;  -13.210;  925.900
934.197;  143.875;  -11.060;  886.360
934.754;  143.934;   -9.580;  897.780
935.312;  145.346;  -14.000;  863.340
935.869;  148.035;  -10.710; 1012.980
936.426;  145.497;   -9.860;  872.800
936.983;  146.888;   -9.710;  889.020
937.540;  148.505;  -13.990;  838.280
938.097;  153.216;  -14.040;  940.120
938.654;  156.566;  -10.310;  898.860
939.211;  157.378;  -10.560;  952.480
939.768;  157.579;  -13.900;  915.420
940.324;  159.699;  -14.760;  904.200
940.881;  160.794;  -10.370;  878.500
941.438;  165.867;   -8.260; 1021.200
941.995;  165.849;  -12.540;  992.560
942.551;  165.921;  -14.670;  875.620
943.108;  166.171;  -10.450;  937.920
943.664;  166.979;  -10.750;  869.340
944.221;  170.241;  -11.550; 1088.140
944.777;  170.935;  -14.770;  869.680
945.334;  169.072;  -12.820;  884.840
945.890;  164.613;  -10.130;  946.480
946.446;  161.035;  -13.470;  947.020
947.003;  163.348;  -12.120;  964.940
947.559;  163.764;   -9.980; 1063.040
948.115;  158.645;   -9.080; 1026.540
948.671;  156.794;  -10.830;  967.300
949.227;  156.783;  -12.440;  859.560
949.783;  157.201;  -12.910;  858.900
950.339;  161.378;  -10.270;  991.000
950.895;  163.373;  -13.630; 1023.840
951.451;  162.118;  -15.100;  925.280
952.007;  160.546;  -11.330;  998.540
952.563;  157.138;  -10.580;  937.780
953.118;  153.859;  -13.440;  904.940
953.674;  153.637;  -12.710;  935.780
954.230;  156.089;  -10.350;  949.640
954.785;  159.978;   -9.190;  936.640
955.341;  161.391;  -11.200;  998.160
955.897;  156.647;  -16.560;  834.660
956.452;  153.571;  -12.570;  953.840
957.008;  151.617;   -7.970; 1083.640
957.563;  147.084;  -11.940; 1009.540
958.118;  143.359;  -13.450;  877.700
958.674;  142.301;  -12.030;  946.780
959.229;  144.119;   -9.410; 1013.980
959.784;  143.872;  -12.000;  832.400
960.339;  145.029;  -14.780; 1001.280
960.894;  143.365;   -9.860;  963.760
961.449;  140.520;   -9.970;  859.960
962.004;  139.969;  -10.900; 1212.840
962.559;  136.533;  -13.150;  860.140
963.114;  133.857;  -13.740;  742.480
963.669;  133.300;   -9.820;  915.500
964.224;  132.235;  -13.890;  874.340
964.779;  134.228;  -12.600;  828.420
965.334;  138.548;  -10.950; 1017.860
965.888;  136.138;  -11.170;  875.360
966.443;  130.734;  -12.540;  972.380
966.998;  120.236;  -15.780;  819.460
967.552;  108.511;   -9.760;  908.380
968.107;   98.889;   -9.060;  868.300
968.661;   94.082;  -11.950;  922.440
969.216;   93.499;  -12.800;  856.280
969.770;   95.484;  -11.210;  917.200
970.324;   99.363;  -11.610;  923.140
970.879;  102.377;  -11.370;  947.180
971.433;  105.868;  -12.540;  952.720
971.987;  106.632;  -11.320;  895.340
972.541;  105.233;  -10.720;  917.100
973.095;  105.307;   -9.680; 1009.460
973.649;  103.175;  -11.440;  809.480
974.203;  101.237;  -11.210;  829.040
974.757;  101.093;  -10.240;  855.220
975.311;  101.266;  -13.720;  872.600
975.865;  101.846;  -13.770;  881.820
976.419;  100.317;  -11.690;  857.400
976.973;   97.808;   -9.510;  849.620
977.526;   97.339;  -12.620;  949.920
978.080;   95.412;  -12.010;  796.780
978.634;   94.727;  -10.170;  921.320
979.187;   94.227;   -9.020;  905.400
979.741;   95.100;   -9.820; 1018.380
980.294;   93.460;  -14.870;  789.160
980.848;   92.877;  -12.380;  717.220
981.401;   93.803;  -10.350;  816.540
981.955;   92.612;  -13.720;  844.300
982.508;   87.904;  -11.490;  746.340
983.061;   88.429;  -10.000;  915.260
983.615;   87.091;  -11.480;  798.800
984.168;   85.560;  -13.220;  770.080
984.721;   85.295;  -13.960;  880.760
985.274;   83.620;  -10.870;  867.500
985.827;   81.634;   -9.790;  834.220
986.380;   79.195;  -13.120;  721.340
986.933;   78.639;  -12.450;  864.800
987.486;   77.902;  -10.210;  861.920
988.039;   79.480;   -8.430;  863.100
988.591;   77.123;  -10.520;  893.260
989.144;   74.927;  -14.860;  737.260
989.697;   73.810;  -13.080;  758.740
990.250;   74.016;  -10.150;  858.100
990.802;   71.804;  -13.430;  755.860
991.355;   71.201;  -12.750;  974.880
991.907;   69.574;  -12.040;  864.320
992.460;   67.946;  -11.330;  753.760
993.012;   66.087;  -13.610;  749.540
993.565;   64.858;  -13.460;  711.360
994.117;   65.763;   -9.360;  950.780
994.669;   63.016;  -11.300;  701.320
995.221;   61.939;  -13.540;  791.920
995.774;   61.246;  -13.430;  787.580
996.326;   59.417;  -12.520;  740.220
996.878;   59.069;  -10.950;  838.420
997.430;   56.264;  -14.300;  699.860
997.982;   55.349;  -13.760;  750.140
998.534;   55.803;  -11.530;  739.060
999.086;   54.830;  -10.310;  738.220
999.638;   54.051;  -12.530;  661.380
1000.190;   52.360;  -11.840;  699.320
1000.741;   51.765;  -10.260;  742.700
1001.293;   52.100;   -8.860;  686.020
1001.845;   49.935;  -13.700;  676.640
1002.396;   50.298;  -12.100;  743.400
1002.948;   49.030;  -12.760;  737.400
1003.500;   48.072;  -10.380;  723.780
1004.051;   47.926;  -11.900;  907.580
1004.603;   46.141;  -12.250;  791.820
1005.154;   42.977;  -13.210;  608.980
1005.705;   42.036;  -10.950;  723.960
1006.257;   41.804;  -13.880;  707.220
1006.808;   41.422;  -12.840;  685.460
1007.359;   40.466;  -10.570;  763.240
1007.910;   39.966;   -9.620;  646.640
1008.461;   40.090;  -13.630;  732.940
1009.013;   38.493;  -17.200;  588.340
1009.564;   39.775;  -10.200;  793.520
1010.115;   37.797;  -12.570;  597.040
1010.665;   37.083;  -15.150;  602.160
1011.216;   37.767;  -14.480;  667.920
1011.767;   37.157;  -11.340;  697.920
1012.318;   37.544;   -9.780;  736.980
1012.869;   35.984;  -12.380;  679.000
1013.419;   35.662;  -15.560;  603.120
1013.970;   36.104;  -11.010;  666.640
1014.521;   35.982;  -11.610;  620.620
1015.071;   35.167;  -13.450;  670.380
1015.622;   35.374;  -13.870;  635.460
1016.172;   34.309;  -11.610;  596.820
1016.723;   35.114;  -12.120;  614.380
1017.273;   33.420;  -13.620;  604.160
1017.823;   34.489;  -14.140;  650.340
1018.374;   33.822;  -12.800;  611.760
1018.924;   33.438;  -12.340;  716.880
1019.474;   33.517;  -11.410;  718.880
1020.024;   32.517;  -14.770;  657.580
1020.574;   33.211;   -9.780;  726.160
1021.124;   33.096;   -8.560;  673.580
1021.674;   31.730;  -15.190;  559.120
1022.224;   31.996;  -13.530;  708.940
1022.774;   32.395;  -13.280;  668.820
1023.324;   32.853;  -10.690;  753.520
1023.874;   33.669;  -10.240;  875.760
1024.423;   31.910;  -12.540;  613.700
1024.973;   31.064;  -10.010;  610.760
1025.523;   31.132;  -10.550;  620.960
1026.072;   30.183;  -13.560;  606.420
1026.622;   29.895;  -15.120;  675.740
1027.172;   31.092;  -11.260;  715.660
1027.721;   29.985;  -11.410;  601.220
1028.270;   29.752;  -13.530;  663.400
1028.820;   29.632;  -13.680;  638.080
1029.369;   28.933;  -13.520;  612.700
1029.918;   30.693;  -10.980;  649.840
1030.468;   28.889;  -13.530;  564.780
1031.017;   29.445;  -13.170;  634.800
1031.566;   27.905;  -12.200;  608.900
1032.115;   28.938;   -9.960;  694.500
1032.664;   27.842;  -13.210;  596.480
1033.213;   28.900;  -12.500;  735.420
1033.762;   27.516;  -11.910;  635.620
1034.311;   28.226;   -9.640;  677.220
1034.860;   27.730;  -13.310;  691.000
1035.408;   27.954;  -11.830;  722.720
1035.957;   27.858;  -12.000;  719.540
1036.506;   25.832;  -11.690;  530.800
1037.055;   28.360;  -10.990;  844.320
1037.603;   26.314;  -15.120;  664.000
1038.152;   25.306;  -12.450;  534.760
1038.700;   26.320;  -10.560;  585.740
1039.249;   25.493;  -11.080;  681.220
1039.797;   25.889;  -12.540;  633.360
1040.345;   25.848;  -11.920;  705.420
1040.894;   25.497;  -11.410;  625.300
1041.442;   24.927;  -14.320;  632.200
1041.990;   23.960;  -16.240;  559.160
1042.538;   23.864;  -11.680;  536.180
1043.087;   24.481;  -10.760;  570.860
1043.635;   24.983;  -11.850;  670.500
1044.183;   23.420;  -15.480;  586.400
1044.731;   23.974;  -11.770;  576.000
1045.279;   24.686;  -13.090;  674.920
1045.827;   25.501;  -12.440;  892.400
1046.374;   22.629;  -13.840;  515.420
1046.922;   22.975;  -13.220;  590.580
1047.470;   24.309;  -10.230;  691.300
1048.018;   23.583;  -14.590;  647.960
1048.565;   23.789;  -12.050;  708.600
1049.113;   22.021;  -11.650;  557.000
1049.660;   23.025;  -10.510;  629.660
1050.208;   22.515;  -13.310;  675.640
1050.755;   22.179;  -15.900;  606.580
1051.303;   23.014;  -11.430;  686.820
1051.850;   22.102;   -8.480;  635.120
1052.397;   20.201;  -15.010;  473.960
1052.945;   20.383;  -13.960;  617.760
1053.492;   23.013;  -13.150;  741.840
1054.039;   22.501;   -9.630;  720.180
1054.586;   20.650;  -13.680;  557.240
1055.133;   21.713;  -14.570;  693.140
1055.680;   21.178;  -13.820;  646.620
1056.227;   21.095;  -11.730;  542.780
1056.774;   21.852;  -12.480;  794.980
1057.321;   20.046;  -13.930;  523.260
1057.868;   20.112;  -11.690;  651.320
1058.415;   20.502;   -9.520;  651.980
1058.961;   20.828;  -13.160;  678.940
1059.508;   20.127;  -12.920;  643.820
1060.055;   19.977;  -11.920;  581.780
1060.601;   20.669;  -11.500;  624.300
1061.148;   20.059;  -14.330;  616.820
1061.694;   18.825;  -16.870;  592.580
1062.241;   19.187;  -10.330;  596.320
1062.787;   19.367;  -10.620;  663.140
1063.334;   20.814;  -10.110;  808.560
1063.880;   19.414;  -13.400;  668.360
1064.426;   19.197;  -10.680;  706.820
1064.972;   18.624;   -9.920;  601.340
1065.518;   17.866;  -10.980;  566.640
1066.065;   18.221;  -14.890;  624.460
1066.611;   18.002;  -12.870;  598.800
1067.157;   19.089;  -12.950;  641.860
1067.703;   18.216;  -13.540;  668.480
1068.249;   17.364;  -13.540;  605.220
1068.794;   17.160;  -12.600;  626.880
1069.340;   16.781;  -10.620;  578.960
1069.886;   17.108;  -12.830;  590.700
1070.432;   15.801;  -14.870;  541.720
1070.977;   16.685;  -11.980;  601.080
1071.523;   17.222;   -8.200;  573.060
1072.068;   16.676;  -12.330;  582.000
1072.614;   16.428;  -16.370;  527.760
1073.160;   16.629;  -11.100;  687.040
1073.705;   16.273;  -10.480;  572.520
1074.250;   16.079;  -14.520;  559.900
1074.796;   16.893;  -11.460;  655.160
1075.341;   16.804;  -11.950;  664.100
1075.886;   15.502;  -11.460;  594.240
1076.431;   15.485;  -13.770;  649.880
1076.976;   15.575;  -12.680;  639.220
1077.521;   14.501;  -13.170;  583.080
1078.067;   14.587;  -10.860;  579.400
1078.612;   14.987;  -13.920;  661.620
1079.156;   14.420;  -13.880;  601.540
1079.701;   15.648;  -13.120;  693.260
1080.246;   16.205;   -9.940;  696.300
1080.791;   15.146;  -14.740;  625.020
1081.336;   14.900;  -13.750;  659.320
1081.880;   14.513;  -13.400;  649.680
1082.425;   14.386;  -12.220;  573.480
1082.970;   14.437;  -11.610;  717.040
1083.514;   13.749;  -13.580;  597.000
1084.059;   12.872;  -12.810;  586.720
1084.603;   13.780;  -12.320;  565.840
1085.147;   13.192;  -13.190;  645.220
1085.692;   14.378;  -12.480;  716.800
1086.236;   12.716;  -13.020;  503.140
1086.780;   15.117;   -9.190;  751.440
1087.325;   13.896;  -12.480;  654.620
1087.869;   13.218;  -12.450;  610.700
1088.413;   12.699;  -12.240;  705.040
1088.957;   11.316;   -9.020;  543.400
1089.501;   13.948;  -10.320;  766.640
1090.045;   13.489;  -12.720;  726.480
1090.589;   11.255;  -13.690;  569.920
1091.133;   13.378;  -10.020;  673.340
1091.676;   12.886;  -12.330;  591.940
1092.220;   11.927;  -14.970;  600.920
1092.764;   12.419;  -12.430;  706.960
1093.307;   13.275;   -9.800;  673.780
1093.851;   10.961;  -14.970;  556.540
1094.395;   12.047;  -15.310;  683.140
1094.938;   11.414;  -10.370;  632.520
1095.482;   11.165;  -11.050;  559.800
1096.025;   11.909;  -11.840;  710.880
1096.568;   12.414;  -12.840;  779.280
1097.112;    9.862;  -14.700;  508.180
1097.655;   11.841;   -8.720;  603.000
1098.198;   10.521;  -13.610;  600.180
1098.741;    9.940;  -13.350;  612.860
1099.285;   10.877;  -11.230;  657.300
1099.828;    8.769;  -11.840;  439.400
1100.371;    9.701;  -10.840;  608.160
1100.914;   10.377;  -14.190;  682.660
1101.457;   10.123;  -11.240;  679.900
1101.999;    9.569;  -11.270;  584.680
1102.542;    9.632;  -11.480;  641.440
1103.085;    9.293;  -11.750;  658.500
1103.628;   10.328;  -11.400;  762.060
1104.170;    9.527;  -10.490;  588.280
1104.713;    9.850;  -10.600;  646.700
1105.256;    8.772;  -14.360;  557.440
1105.798;    7.857;  -13.210;  499.980
1106.341;   10.437;  -10.270;  728.900
1106.883;    9.432;  -12.200;  521.340
1107.425;    8.759;  -13.110;  668.180
1107.968;    8.701;  -12.840;  612.380
1108.510;    9.759;   -6.480;  684.960
1109.052;    7.790;  -13.940;  612.620
1109.594;    7.681;  -13.690;  554.440
1110.136;    9.016;  -11.880;  643.220
1110.679;    7.643;   -9.500;  633.080
1111.221;    8.611;  -14.160;  604.460
1111.763;    7.427;  -13.980;  559.220
1112.304;    7.294;  -13.880;  547.140
1112.846;    8.733;  -12.210;  666.240
1113.388;   10.147;  -11.390;  942.180
1113.930;    8.031;  -14.540;  694.200
1114.472;    7.196;  -12.640;  606.540
1115.013;    6.781;  -11.620;  551.280
1115.555;    6.276;  -13.640;  587.100
1116.097;    5.592;  -15.380;  579.480
1116.638;    7.330;  -12.640;  684.600
1117.180;    7.439;   -9.850;  667.740
1117.721;    7.477;  -13.690;  568.580
1118.262;    7.060;  -12.680;  677.960
1118.804;    7.205;  -12.530;  637.340
1119.345;    6.425;  -11.690;  578.400
1119.886;    6.813;  -13.380;  704.040
1120.427;    6.348;  -14.070;  589.020
1120.969;    6.082;  -13.500;  597.920
1121.510;    5.889;  -11.480;  563.060
1122.051;    6.214;  -12.830;  723.580
1122.592;    5.518;  -14.290;  655.420
1123.133;    4.509;  -12.400;  547.940
1123.673;    6.250;  -10.130;  706.480
1124.214;    5.504;  -12.930;  612.460
1124.755;    5.801;  -14.380;  639.460
1125.296;    5.449;  -14.000;  627.320
1125.836;    5.876;  -10.070;  691.500
1126.377;    4.772;  -12.640;  599.660
1126.918;    5.939;  -12.960;  614.980
1127.458;    4.510;  -13.350;  622.220
1127.999;    5.875;  -10.750;  656.980
1128.539;    5.132;  -12.350;  694.240
1129.079;    4.390;  -14.860;  632.720
1129.620;    4.456;  -13.840;  558.100
1130.160;    4.191;  -12.330;  539.480
1130.700;    4.609;  -14.530;  640.840
1131.240;    5.095;  -12.530;  643.700
1131.781;    4.250;  -14.450;  619.680
1132.321;    4.496;   -9.790;  599.120
1132.861;    2.946;  -14.860;  564.200
1133.401;    3.219;  -14.290;  593.940
1133.941;    3.357;  -11.750;  626.280
1134.481;    3.833;   -9.920;  597.580
1135.020;    2.935;  -12.290;  609.160
1135.560;    3.693;  -11.650;  674.940
1136.100;    2.565;  -16.270;  501.160
1136.640;    2.993;  -10.890;  510.480
1137.179;    2.518;  -14.180;  537.960
1137.719;    2.709;  -16.250;  605.400
1138.258;    2.348;  -14.230;  587.360
1138.798;    4.039;   -9.090;  663.780
1139.337;    2.003;  -15.130;  482.840
1139.877;    2.782;  -13.680;  642.360
1140.416;    4.584;  -11.320;  878.060
1140.955;    2.531;  -10.860;  535.380
1141.494;    2.566;  -12.920;  669.280
1142.034;    2.470;  -13.930;  583.520
1142.573;    3.322;  -11.440;  646.280
1143.112;    2.046;  -12.000;  553.480
1143.651;    2.196;  -13.670;  536.480
1144.190;    2.866;  -12.730;  691.640
1144.729;    1.672;  -14.560;  607.420
1145.267;    2.456;  -11.830;  584.900
1145.806;    2.800;  -12.230;  637.040
1146.345;    1.846;  -14.130;  635.020
1146.884;    1.637;  -11.590;  622.500
1147.422;    1.395;  -12.550;  533.060
1147.961;    2.773;  -11.180;  708.460
1148.500;    2.771;  -11.510;  669.720
1149.038;    2.172;  -11.640;  632.500
1149.577;    2.009;  -10.130;  698.640
1150.115;   -0.100;  -13.970;  452.280
1150.653;    1.214;  -14.520;  607.340
1151.192;    1.109;  -12.810;  552.920
1151.730;    1.347;   -9.100;  652.560
1152.268;    0.764;  -12.220;  589.520
1152.806;    0.779;  -14.140;  571.180
1153.344;   -0.411;  -12.350;  577.640
1153.882;    1.103;   -8.980;  600.060
1154.421;   -0.236;  -15.190;  470.620
1154.958;    0.843;  -15.210;  595.240
1155.496;    1.893;  -12.850;  645.280
1156.034;    1.655;   -9.940;  721.880
1156.572;    1.609;  -13.570;  667.060
1157.110;    0.503;  -14.590;  473.940
1157.647;    1.017;  -13.030;  676.960
1158.185;    0.187;  -12.140;  564.320
1158.723;   -1.156;  -14.390;  509.200
1159.260;    0.260;  -14.090;  701.700
1159.798;    0.076;  -11.920;  658.160
1160.335;    0.273;  -11.110;  631.820

