
Integration time [ms]:   3.276
Averaging Nr. [scans]: 1000
Smoothing Nr. [pixels]: 0
Data measured with spectrometer [name]: 7414430SP
Wave   ;Sample   ;Dark     ;Reference
[nm]   ;[counts] ;[counts] ;[counts] 

288.544;  158.154;    7.793;  793.890
289.143;  162.217;    7.462;  681.602
289.742;  162.279;    8.602;  828.814
290.341;  149.041;    1.321;  789.841
290.940;  140.200;   -0.709;  730.702
291.538;  140.010;    0.881;  881.108
292.137;  138.457;    0.122;  792.581
292.736;  141.817;   -1.929;  975.101
293.335;  137.753;   -8.229;  735.086
293.934;  138.424;   -5.279;  781.677
294.532;  138.550;   -1.369; 1031.958
295.131;  124.414;   -7.641;  834.394
295.730;  124.056;   -8.420;  809.588
296.328;  123.258;   -5.611;  783.442
296.927;  123.084;   -5.781;  779.652
297.525;  122.868;   -6.361;  781.236
298.124;  114.334;  -11.382;  654.009
298.722;  118.144;   -7.641;  761.933
299.321;  116.038;   -6.811;  708.597
299.919;  113.423;   -6.991;  751.918
300.518;  110.596;  -10.362;  689.338
301.116;  111.045;   -9.581;  691.381
301.715;  111.297;   -4.891;  730.222
302.313;  110.397;   -8.801;  704.943
302.911;  105.806;   -8.522;  733.830
303.509;  109.765;   -6.171;  925.627
304.108;  108.554;   -7.311;  760.383
304.706;  107.669;   -8.321;  801.664
305.304;  102.516;  -10.222;  796.707
305.902;  108.090;   -6.021;  784.484
306.500;  103.814;   -4.971;  728.200
307.098;  101.675;   -7.061;  746.560
307.696;   99.837;   -8.801;  780.432
308.294;  100.921;   -6.411;  731.359
308.892;  101.172;   -2.901;  759.769
309.490;   97.900;   -5.041;  712.161
310.088;   95.705;   -5.002;  788.444
310.686;   99.495;   -2.041;  821.749
311.284;   95.995;   -2.351;  766.040
311.882;   93.993;   -4.422;  731.225
312.480;   91.125;   -4.192;  697.167
313.078;   92.214;   -1.172;  808.331
313.675;   93.654;   -2.601;  691.600
314.273;   87.651;   -1.312;  797.837
314.871;   86.849;   -3.942;  589.829
315.468;   84.529;   -2.802;  652.090
316.066;   87.870;   -0.701;  694.427
316.664;   80.733;   -4.362;  656.351
317.261;   84.514;   -2.872;  910.128
317.859;   80.642;   -2.022;  768.735
318.456;   80.046;   -0.531;  830.096
319.054;   76.625;   -3.912;  787.828
319.651;   75.608;   -4.752;  759.928
320.249;   74.651;   -2.602;  810.188
320.846;   71.965;   -0.821;  714.286
321.443;   69.136;   -4.642;  832.135
322.041;   65.575;   -5.002;  812.315
322.638;   63.506;   -3.982;  701.456
323.235;   65.487;   -3.411;  665.683
323.833;   62.675;   -7.361;  740.354
324.430;   57.186;   -8.611;  615.900
325.027;   57.958;   -4.061;  876.855
325.624;   57.863;   -4.031;  644.532
326.221;   55.548;   -7.481;  689.717
326.818;   53.831;   -5.281;  818.332
327.415;   56.879;   -7.460;  748.828
328.012;   56.932;   -5.510;  690.585
328.609;   55.365;   -7.880;  731.389
329.206;   53.332;   -8.331;  778.621
329.803;   53.006;   -5.121;  737.841
330.400;   56.181;   -4.510;  704.260
330.997;   58.213;   -6.441;  817.147
331.594;   56.328;   -8.831;  788.185
332.191;   61.318;   -7.621;  728.722
332.787;   64.111;   -4.591;  844.463
333.384;   64.043;   -7.412;  763.093
333.981;   62.942;   -8.293;  815.687
334.578;   65.541;   -7.052;  708.378
335.174;   68.170;   -3.102;  731.469
335.771;   67.867;   -5.943;  836.456
336.367;   65.032;   -7.393;  710.631
336.964;   67.786;   -4.063;  793.266
337.561;   66.983;   -3.813;  731.112
338.157;   62.433;   -4.654;  911.916
338.754;   60.575;   -7.934;  796.589
339.350;   59.032;   -4.414;  722.493
339.946;   59.817;   -4.664;  773.135
340.543;   52.592;   -6.375;  846.136
341.139;   46.991;   -9.815;  720.836
341.735;   43.219;   -4.526;  772.593
342.332;   41.754;   -4.895;  691.472
342.928;   42.594;   -4.295;  795.394
343.524;   36.265;   -5.476;  761.684
344.120;   32.388;   -5.856;  738.562
344.716;   35.902;   -2.155;  723.717
345.313;   33.992;   -6.275;  795.342
345.909;   29.065;   -8.815;  627.336
346.505;   29.631;   -5.305;  740.247
347.101;   30.520;   -2.674;  827.864
347.697;   30.528;   -4.344;  785.398
348.293;   25.637;   -9.975;  627.244
348.889;   26.518;   -5.774;  745.914
349.485;   26.081;   -5.004;  688.205
350.081;   26.206;   -4.704;  772.592
350.676;   21.380;   -6.635;  691.606
351.272;   25.382;   -4.504;  809.530
351.868;   24.697;   -3.914;  780.497
352.464;   22.772;   -9.044;  723.932
353.059;   19.380;   -8.314;  646.017
353.655;   22.191;   -7.024;  777.063
354.251;   22.857;   -5.343;  759.845
354.846;   18.051;   -8.604;  740.646
355.442;   14.900;   -6.945;  753.071
356.038;   17.028;   -7.564;  751.708
356.633;   17.234;   -5.814;  728.594
357.229;   14.708;   -7.364;  724.757
357.824;   13.715;   -8.024;  703.600
358.420;   12.603;   -9.384;  679.726
359.015;   13.233;   -5.104;  695.357
359.610;   14.233;   -6.854;  763.920
360.206;    7.814;  -10.185;  603.240
360.801;   11.135;   -7.054;  646.503
361.396;   12.707;   -5.034;  725.975
361.992;    8.504;   -8.284;  668.220
362.587;    6.345;   -8.625;  670.160
363.182;    7.820;   -7.674;  689.631
363.777;    8.860;   -5.164;  738.242
364.372;    8.140;   -8.604;  737.314
364.967;    4.219;   -9.055;  680.744
365.563;    9.323;   -6.114;  815.567
366.158;    6.134;   -5.814;  685.161
366.753;    5.819;   -7.854;  649.263
367.348;    4.472;   -7.804;  746.056
367.942;    4.339;   -7.954;  697.298
368.537;    4.509;   -4.984;  754.245
369.132;    4.044;   -8.564;  703.428
369.727;   -0.365;   -8.855;  638.079
370.322;    0.921;   -6.245;  580.186
370.917;    0.488;   -6.425;  710.646
371.511;    3.650;   -6.294;  861.834
372.106;   -0.795;   -7.685;  776.964
372.701;   -2.474;   -7.335;  585.988
373.296;    2.276;   -4.564;  863.135
373.890;   -2.274;  -10.235;  647.840
374.485;   -4.670;   -7.885;  691.199
375.079;   -0.747;   -7.324;  738.685
375.674;    0.978;   -3.494;  812.970
376.268;   -3.578;   -8.525;  691.759
376.863;   -8.635;  -10.086;  580.327
377.457;   -3.325;   -7.025;  662.490
378.052;   -4.816;   -3.585;  764.884
378.646;   -5.238;   -7.595;  741.167
379.240;   -6.370;   -8.335;  721.176
379.835;   -5.609;   -5.785;  636.978
380.429;   -7.920;   -4.335;  562.557
381.023;   -7.448;   -6.805;  779.205
381.617;   -9.544;   -9.195;  680.106
382.212;   -6.250;   -6.905;  685.303
382.806;   -5.361;   -3.745;  760.690
383.400;   -9.382;   -7.745;  672.281
383.994;  -10.186;   -9.765;  664.870
384.588;   -7.071;   -6.564;  697.701
385.182;   -5.465;   -5.344;  726.624
385.776;   -6.650;   -8.514;  706.875
386.370;   -9.776;   -9.555;  681.968
386.964;   -8.971;   -8.715;  684.155
387.558;   -7.978;   -6.174;  598.360
388.152;  -10.684;   -8.725;  681.959
388.745;   -9.093;   -7.965;  814.707
389.339;   -6.562;   -5.924;  747.642
389.933;   -6.923;   -5.524;  695.370
390.527;   -7.256;   -7.114;  859.029
391.120;  -13.763;  -10.725;  595.318
391.714;  -10.487;   -8.035;  711.633
392.308;   -7.243;   -3.574;  780.253
392.901;  -11.273;   -7.245;  642.460
393.495;  -12.203;   -9.285;  595.414
394.089;  -11.092;   -5.895;  760.452
394.682;  -12.106;   -4.295;  697.188
395.275;  -12.416;   -9.875;  719.927
395.869;  -13.773;   -8.485;  667.314
396.462;  -12.254;   -7.455;  616.609
397.056;   -7.702;   -5.424;  776.621
397.649;  -12.601;   -6.605;  731.575
398.242;  -10.230;   -8.224;  712.645
398.836;   -8.533;   -7.474;  766.408
399.429;  -10.612;   -7.094;  631.041
400.022;  -13.163;   -9.475;  665.902
400.615;  -11.067;   -7.145;  805.609
401.208;   -9.107;   -7.174;  691.451
401.802;  -12.282;   -5.515;  699.329
402.395;  -13.158;   -9.875;  683.502
402.988;  -13.294;   -8.845;  696.627
403.581;  -10.448;   -8.874;  646.878
404.174;   -8.547;   -5.324;  686.568
404.767;  -11.607;   -9.575;  638.583
405.360;  -13.605;  -10.965;  621.445
405.953;   -7.617;   -8.764;  759.034
406.545;   -7.667;   -7.514;  725.342
407.138;  -12.473;  -10.025;  618.350
407.731;  -10.588;  -10.034;  613.303
408.324;   -6.414;   -9.374;  660.554
408.917;   -8.141;   -6.534;  681.864
409.509;   -9.758;   -8.004;  740.396
410.102;  -11.846;   -9.875;  643.948
410.695;   -5.552;   -8.604;  665.758
411.287;   -6.640;   -6.794;  599.821
411.880;   -7.478;   -9.334;  585.421
412.472;  -10.781;  -10.254;  613.092
413.065;   -8.344;   -6.714;  629.408
413.657;   -6.130;   -7.234;  576.678
414.250;   -5.080;  -10.544;  646.681
414.842;   -7.662;   -9.744;  676.353
415.434;   -5.192;   -6.994;  570.463
416.027;   -1.103;   -5.893;  652.196
416.619;   -3.091;   -7.264;  713.400
417.211;   -3.162;  -10.374;  599.352
417.804;    0.722;   -7.993;  628.499
418.396;   -3.980;   -7.234;  607.643
418.988;   -1.888;   -9.443;  659.238
419.580;   -5.131;  -10.724;  568.276
420.172;   -3.528;  -10.323;  536.196
420.764;    0.867;   -8.793;  672.482
421.356;    0.051;  -11.143;  636.898
421.948;   -0.758;   -8.293;  677.661
422.540;    4.741;   -7.893;  680.027
423.132;    3.352;   -7.082;  600.641
423.724;   -0.346;   -8.653;  561.267
424.316;    2.237;  -10.213;  621.345
424.908;    5.940;   -9.762;  591.517
425.500;    6.640;   -5.572;  647.978
426.092;    6.766;   -8.422;  648.268
426.683;    6.281;   -9.283;  684.836
427.275;    8.465;   -7.852;  641.471
427.867;   10.223;   -5.272;  668.948
428.458;   10.312;   -7.682;  732.344
429.050;    8.877;  -10.612;  680.749
429.642;   11.296;   -9.882;  743.124
430.233;   11.820;   -6.962;  569.356
430.825;   13.517;   -6.842;  724.809
431.416;   10.435;   -9.672;  698.241
432.008;   14.562;   -6.552;  651.723
432.599;   14.568;   -6.891;  656.073
433.190;   11.943;  -10.912;  637.670
433.782;   11.071;  -11.172;  590.395
434.373;   18.579;   -6.061;  884.765
434.964;   17.364;   -8.251;  602.920
435.556;   15.479;   -9.722;  634.537
436.147;   18.086;   -9.082;  758.490
436.738;   17.650;   -8.041;  701.099
437.329;   22.739;   -7.341;  721.723
437.920;   15.448;   -8.162;  666.688
438.511;   16.460;  -11.802;  564.526
439.103;   23.140;  -10.191;  623.998
439.694;   24.037;   -7.601;  681.583
440.285;   25.071;   -8.541;  764.432
440.876;   23.989;   -9.751;  845.738
441.466;   23.210;   -9.401;  575.162
442.057;   28.491;   -7.760;  665.814
442.648;   27.682;   -9.971;  746.255
443.239;   25.671;  -11.001;  620.477
443.830;   30.790;   -7.990;  704.958
444.421;   32.473;   -7.910;  655.474
445.011;   29.079;   -8.131;  693.619
445.602;   28.528;   -7.111;  743.126
446.193;   30.382;  -10.920;  488.117
446.783;   34.754;   -6.500;  640.397
447.374;   29.686;   -8.671;  692.759
447.964;   31.032;  -10.781;  713.770
448.555;   39.053;   -9.650;  822.742
449.145;   35.935;   -8.660;  662.853
449.736;   37.204;   -8.990;  803.179
450.326;   36.709;   -9.500;  713.626
450.917;   41.753;   -8.680;  675.324
451.507;   40.273;   -7.520;  600.661
452.097;   41.311;   -8.590;  746.267
452.688;   42.664;  -11.340;  742.160
453.278;   42.604;  -10.100;  566.840
453.868;   46.301;   -6.019;  793.550
454.458;   44.807;   -9.440;  651.141
455.048;   46.055;  -10.560;  711.783
455.639;   47.412;  -11.799;  567.096
456.229;   49.625;   -6.899;  710.694
456.819;   52.239;   -7.389;  751.158
457.409;   52.286;  -11.119;  773.993
457.999;   55.126;   -9.289;  737.505
458.589;   55.226;   -6.139;  686.606
459.179;   54.655;   -8.729;  717.658
459.769;   53.148;   -9.789;  627.099
460.358;   58.252;  -10.259;  797.262
460.948;   57.725;   -7.299;  689.503
461.538;   59.530;  -10.289;  660.677
462.128;   57.989;  -11.269;  664.934
462.717;   64.277;   -9.368;  710.326
463.307;   67.370;   -7.908;  705.846
463.897;   63.503;   -9.599;  656.942
464.486;   63.037;   -9.769;  837.128
465.076;   67.560;   -8.048;  733.776
465.666;   69.723;   -9.358;  652.900
466.255;   68.519;   -7.919;  785.651
466.845;   67.766;  -11.689;  666.749
467.434;   71.063;   -7.818;  725.873
468.023;   71.549;   -7.678;  658.357
468.613;   69.191;  -10.939;  713.946
469.202;   74.200;  -10.118;  646.507
469.791;   78.360;   -9.108;  737.811
470.381;   79.294;   -6.058;  742.813
470.970;   79.696;  -10.428;  711.099
471.559;   79.145;  -10.268;  733.291
472.148;   82.737;   -8.448;  675.737
472.738;   85.156;   -6.917;  765.466
473.327;   84.800;  -11.978;  637.529
473.916;   84.684;  -11.888;  737.446
474.505;   88.740;   -9.437;  751.703
475.094;   92.056;   -6.747;  806.570
475.683;   91.717;   -9.367;  797.699
476.272;   91.810;  -12.637;  730.632
476.861;   95.153;  -10.027;  706.754
477.449;  101.775;   -8.716;  728.487
478.038;   96.031;   -9.577;  692.513
478.627;   97.069;   -9.718;  714.852
479.216;  104.240;   -8.947;  769.441
479.805;  107.092;   -6.256;  783.375
480.393;  107.318;   -7.937; 1008.945
480.982;  106.333;   -7.717;  874.501
481.571;  112.968;   -9.266;  858.333
482.159;  113.560;   -7.636;  705.386
482.748;  113.943;   -9.667;  821.385
483.336;  118.628;  -10.376;  858.209
483.925;  119.428;   -7.147;  774.373
484.513;  125.855;   -7.996;  758.962
485.102;  123.644;  -10.027;  810.965
485.690;  131.489;  -10.446; 1011.050
486.278;  133.099;   -8.446;  979.329
486.867;  134.452;   -6.356;  809.662
487.455;  136.869;   -9.136;  898.229
488.043;  138.030;  -10.646;  748.361
488.631;  147.782;   -7.456; 1005.079
489.220;  150.993;   -6.636;  908.626
489.808;  152.019;  -11.036;  741.415
490.396;  160.291;  -10.246;  914.645
490.984;  167.538;   -8.556;  830.161
491.572;  179.491;   -5.886;  940.315
492.160;  187.258;   -9.486;  919.081
492.748;  198.558;  -10.976;  884.341
493.336;  221.704;   -8.776; 1019.693
493.924;  252.876;   -5.465;  958.077
494.512;  291.729;   -9.986; 1066.638
495.100;  338.617;  -10.636; 1103.280
495.687;  407.328;  -10.885; 1206.373
496.275;  494.361;   -8.126; 1150.796
496.863;  576.406;  -10.586; 1281.171
497.451;  691.030;  -11.926; 1386.805
498.038;  800.990;  -10.885; 1556.729
498.626;  934.390;   -6.315; 1741.407
499.214; 1152.683;   -7.326; 2016.609
499.801; 1404.833;  -11.906; 2220.633
500.389; 1732.216;  -10.466; 2312.494
500.976; 2028.536;   -5.236; 2744.849
501.564; 2535.365;   -8.936; 3148.565
502.151; 3221.429;  -13.176; 3515.999
502.738; 3654.070;  -10.646; 3971.274
503.326; 4052.540;   -9.525; 4403.796
503.913; 4495.727;  -10.856; 5161.749
504.500; 5050.894;  -11.586; 5986.420
505.088; 5676.502;  -10.336; 6381.201
505.675; 6556.281;   -6.355; 6925.547
506.262; 7101.119;   -9.046; 7619.060
506.849; 7518.458;  -10.416; 8733.969
507.436; 8038.188;  -10.305; 9790.121
508.023; 8459.435;   -5.496; 9985.472
508.610; 8576.757;   -7.856;10434.618
509.197; 9580.074;  -10.097;11198.435
509.784;11018.097;  -10.886;12391.194
510.371;12613.173;   -9.315;13603.713
510.958;13852.154;   -9.936;14426.586
511.545;14468.047;   -9.326;15243.775
512.132;14651.426;  -10.075;15945.876
512.719;15253.074;   -7.796;16340.369
513.305;16693.373;  -10.606;18011.766
513.892;18277.166;  -11.486;19754.971
514.479;19584.963;   -9.126;20967.805
515.066;21102.977;   -6.026;22299.793
515.652;21218.084;   -8.466;22908.660
516.239;21765.473;  -10.886;23798.875
516.825;23462.150;  -11.496;25567.275
517.412;25243.354;   -5.796;28154.959
517.998;26488.043;  -10.506;28344.111
518.585;27414.836;  -10.076;27134.219
519.171;26917.320;   -8.315;27268.576
519.758;27688.035;   -8.596;28964.129
520.344;30405.260;   -8.466;30664.494
520.930;29474.570;  -11.006;32550.605
521.516;27758.824;  -10.495;35422.895
522.103;29775.201;   -5.526;38280.004
522.689;32345.197;   -8.746;37835.117
523.275;33467.883;  -11.376;37288.613
523.861;35576.926;  -11.156;37281.395
524.447;35019.734;   -8.135;37846.949
525.033;35505.691;   -7.896;38321.949
525.619;36645.902;  -12.476;38579.285
526.205;36687.203;   -9.516;40622.875
526.791;36096.488;   -6.926;42258.836
527.377;35975.520;   -8.346;42966.902
527.963;37963.426;   -8.717;42018.949
528.549;39564.875;  -11.016;42476.828
529.135;37898.520;   -8.536;41854.852
529.721;37678.578;   -9.666;41237.711
530.306;36777.762;  -10.066;41259.445
530.892;38049.859;  -11.356;41506.047
531.478;39966.715;   -6.596;43559.613
532.063;42119.941;   -8.836;47695.563
532.649;40415.465;  -10.047;50808.324
533.235;40575.469;   -9.746;51787.500
533.820;43052.188;   -6.566;52145.035
534.406;44790.430;  -10.817;51133.488
534.991;46886.074;   -9.416;49996.805
535.576;45512.238;   -9.036;48882.852
536.162;42551.477;   -6.156;46942.285
536.747;42980.566;  -11.607;45711.746
537.333;46027.141;  -11.787;48510.180
537.918;47047.457;  -12.437;50439.891
538.503;46434.383;   -7.196;50863.711
539.088;47270.734;  -10.556;50906.922
539.673;48284.090;   -8.767;52621.965
540.259;44743.645;  -10.026;52368.094
540.844;44082.887;   -7.416;50879.109
541.429;43745.145;   -9.467;52077.777
542.014;43262.660;   -9.527;52716.695
542.599;46603.195;   -9.946;52363.281
543.184;47857.824;   -7.927;53187.137
543.769;48134.047;   -9.297;54697.605
544.354;48434.066;  -10.127;53913.914
544.938;46068.504;   -9.267;49680.164
545.523;44273.711;   -6.506;47386.277
546.108;46515.543;   -9.787;49151.949
546.693;47383.438;  -11.587;51384.637
547.278;47334.410;  -10.986;51853.254
547.862;47718.078;   -8.206;51173.750
548.447;46225.973;  -10.067;51691.395
549.031;46160.898;   -9.637;52456.703
549.616;46577.063;   -9.926;52714.516
550.201;45500.680;   -6.347;52414.598
550.785;46563.234;   -7.917;52355.059
551.370;47609.125;  -10.867;54589.453
551.954;49859.543;   -9.047;58267.348
552.538;48911.961;   -7.827;59062.176
553.123;46698.805;  -10.287;58115.285
553.707;45830.816;  -12.178;56556.285
554.291;43107.141;   -8.717;56201.668
554.876;44643.070;   -7.457;55335.762
555.460;47195.641;  -10.387;54155.703
556.044;48706.133;   -9.618;53721.484
556.628;49362.375;  -11.567;53731.016
557.212;50132.828;   -8.097;54312.531
557.796;51786.488;  -11.077;53797.773
558.380;49641.250;  -11.108;56145.984
558.964;47441.133;   -9.057;57277.930
559.548;45066.242;   -6.977;56459.641
560.132;41861.422;  -11.457;54434.543
560.716;43433.375;  -11.378;54800.617
561.300;45513.629;   -9.577;57606.945
561.884;44179.945;   -7.127;58972.445
562.467;42920.660;   -7.118;57327.570
563.051;41412.777;  -13.358;54962.434
563.635;39358.707;  -10.178;52594.473
564.219;41111.652;   -7.837;50610.410
564.802;44469.621;  -11.398;49551.180
565.386;44872.680;  -12.788;48370.953
565.969;46081.305;   -9.077;48178.871
566.553;45360.848;   -6.207;49957.305
567.136;43771.766;   -8.568;50369.594
567.720;45021.820;  -11.868;49492.004
568.303;46089.609;   -8.268;50616.352
568.887;45004.859;   -8.698;50727.148
569.470;42458.879;   -6.808;51698.379
570.053;40224.973;  -13.188;52122.078
570.637;37952.270;  -12.037;52536.438
571.220;38153.773;   -8.577;51186.098
571.803;38307.418;   -8.498;51032.762
572.386;40787.137;  -10.498;49609.887
572.969;41810.383;   -9.388;48285.926
573.552;42238.578;   -8.338;47624.285
574.135;41543.113;   -8.518;45498.641
574.718;38040.070;  -13.628;41970.434
575.301;37704.555;  -10.893;41447.137
575.884;37369.039;   -8.158;40923.836
576.467;41724.551;  -10.328;45267.723
577.050;42083.852;  -13.058;48175.543
577.633;40627.406;   -9.458;47729.328
578.216;37035.613;   -8.928;47579.793
578.799;34727.863;   -9.358;47820.996
579.381;36168.211;  -11.388;48115.551
579.964;36126.641;  -11.718;47333.766
580.547;35102.133;   -8.588;46668.969
581.129;36172.742;   -8.859;44466.141
581.712;37931.270;  -10.729;44164.922
582.294;37292.473;  -11.118;46477.855
582.877;38203.965;   -5.218;48244.254
583.459;38640.637;   -8.679;47437.895
584.042;39900.152;  -10.709;46943.219
584.624;37999.711;  -11.669;46792.227
585.206;36515.273;   -8.218;46557.250
585.789;37089.645;  -10.569;45793.773
586.371;37553.617;  -11.859;43836.391
586.953;38861.156;  -10.719;42972.492
587.536;40341.453;   -7.198;42487.211
588.118;38961.543;   -8.720;42086.414
588.700;37634.012;  -10.439;43389.930
589.282;35141.199;   -9.198;43646.039
589.864;33071.602;   -9.199;43438.109
590.446;33019.883;  -11.319;43151.926
591.028;32454.338;  -11.159;42781.867
591.610;32426.367;  -11.779;42839.098
592.192;33844.129;   -7.668;42820.402
592.774;33420.145;  -11.949;40724.277
593.356;31553.025;  -12.129;39874.789
593.937;31489.121;  -10.669;39980.648
594.519;33964.563;   -6.509;42069.633
595.101;33999.613;  -10.849;42976.031
595.683;32673.553;  -11.679;44084.441
596.264;31603.805;   -9.049;43478.797
596.846;31289.041;   -8.849;43803.672
597.427;31247.266;   -9.570;42986.934
598.009;33020.875;  -12.620;42832.219
598.591;32926.504;  -10.039;42580.086
599.172;35218.563;  -10.369;43061.805
599.753;37758.223;   -9.140;41691.469
600.335;37127.516;  -11.430;40692.520
600.916;34468.121;   -9.939;39982.422
601.498;31318.668;   -8.479;40318.617
602.079;30679.711;  -10.920;40670.609
602.660;30199.631;  -11.480;41450.898
603.241;31053.521;  -11.699;41137.738
603.823;31381.834;   -9.579;38868.797
604.404;31194.494;  -10.620;38182.785
604.985;34116.082;  -10.450;38078.047
605.566;34704.004;   -9.129;38056.633
606.147;35809.742;   -7.510;37020.418
606.728;34640.410;  -10.660;37883.359
607.309;32671.680;  -11.740;38748.273
607.890;32072.928;   -9.759;38850.230
608.471;30763.338;   -8.250;37457.918
609.051;31022.475;   -9.240;36066.457
609.632;30668.395;  -12.120;35991.074
610.213;30181.955;   -9.110;37402.641
610.794;31545.701;   -8.030;38383.363
611.374;30567.824;   -8.110;40562.387
611.955;30466.717;  -13.560;38533.727
612.536;31535.705;  -11.400;36951.789
613.116;30893.309;   -8.070;37197.891
613.697;31578.719;  -10.830;38411.125
614.277;31303.178;  -11.641;38673.938
614.858;30698.852;  -13.310;37075.863
615.438;30767.813;   -7.460;35092.906
616.019;28823.986;   -7.601;33666.301
616.599;29385.072;  -12.020;34189.023
617.179;29281.771;  -11.780;36952.047
617.760;28148.539;   -8.570;39582.574
618.340;28625.680;  -11.471;38943.977
618.920;29001.160;  -11.170;37594.156
619.500;30006.795;  -11.071;37866.938
620.080;30575.479;   -7.750;37869.043
620.660;30736.873;  -12.711;36868.617
621.241;31381.459;  -10.211;36352.309
621.821;30916.221;  -10.961;35459.520
622.401;31086.326;   -7.720;35207.414
622.980;33023.477;   -8.981;35980.422
623.560;31659.037;   -9.331;37351.328
624.140;27262.365;   -9.850;34388.582
624.720;23406.795;   -7.451;32368.764
625.300;23270.621;   -9.070;32638.629
625.880;27424.816;  -12.601;34599.035
626.459;30650.008;  -11.751;36831.738
627.039;30841.742;   -9.281;38299.098
627.619;29863.898;   -8.801;38289.574
628.198;29798.828;  -12.071;37220.695
628.778;30653.621;   -9.461;37632.563
629.357;31384.906;   -8.491;38003.012
629.937;31143.818;   -9.721;38402.039
630.516;32044.195;   -9.951;37868.801
631.096;33421.723;  -11.731;35760.410
631.675;35802.914;   -8.572;35225.219
632.254;35420.426;  -11.282;35130.289
632.834;34000.504;  -13.322;35794.570
633.413;34621.934;  -10.301;35788.922
633.992;34488.754;   -8.582;34532.863
634.571;35092.582;   -8.352;33590.113
635.151;34406.594;  -11.912;34943.863
635.730;32197.785;  -10.511;35352.523
636.309;32084.326;   -7.731;35366.605
636.888;31737.475;   -9.952;36165.637
637.467;30957.412;  -11.672;37515.902
638.046;29384.283;   -8.901;39288.695
638.625;28593.383;   -7.912;38279.699
639.204;27923.641;  -10.022;37741.598
639.782;29314.934;  -12.252;38364.551
640.361;31337.840;  -10.041;36740.621
640.940;30957.861;  -11.161;34950.082
641.519;30651.244;   -9.701;34137.398
642.097;31859.648;  -11.271;35654.258
642.676;31882.547;   -8.651;35637.957
643.255;30816.625;   -8.711;36567.074
643.833;30547.977;   -9.581;37809.434
644.412;31439.676;  -13.711;37337.293
644.990;32796.406;  -11.811;37018.531
645.569;35522.879;   -9.411;36518.469
646.147;36073.156;  -10.291;36186.430
646.726;34113.152;  -12.401;36267.688
647.304;32652.363;  -10.411;36647.625
647.882;33103.461;   -9.651;39286.742
648.461;32719.676;   -9.631;39157.703
649.039;30592.893;  -11.881;35412.883
649.617;30521.879;   -9.661;34744.918
650.195;30848.461;   -9.301;35403.098
650.773;30249.617;  -10.511;35053.797
651.352;30198.729;  -11.521;33756.816
651.930;29081.547;  -12.211;31868.773
652.508;28126.076;   -9.171;33121.551
653.086;29408.148;   -9.371;33564.793
653.663;31577.668;  -13.161;34054.668
654.241;30460.990;  -13.031;35693.309
654.819;28583.691;   -9.371;36422.906
655.397;29308.658;  -10.511;38213.484
655.975;29387.893;  -10.371;39507.625
656.553;30346.021;  -10.051;39498.223
657.130;31027.406;  -10.061;40395.480
657.708;27972.152;   -9.561;39242.020
658.286;25108.227;  -11.511;38920.020
658.863;25651.227;  -10.261;40202.898
659.441;28638.063;   -7.531;39677.938
660.018;31051.125;   -9.501;40413.355
660.596;31753.336;  -13.301;39931.414
661.173;34362.570;  -11.211;39604.531
661.750;33200.352;   -9.951;39700.070
662.328;30601.188;   -9.390;39292.809
662.905;29258.266;  -11.330;38235.648
663.482;26423.332;   -9.050;36212.305
664.060;24256.090;   -8.240;35944.945
664.637;28383.500;  -10.050;35170.785
665.214;33134.871;  -11.760;34197.523
665.791;32009.293;  -10.530;34549.520
666.368;31539.887;   -9.690;35118.578
666.945;31972.934;   -9.320;36019.418
667.522;32971.844;  -11.860;36048.438
668.099;32383.916;  -10.770;36243.914
668.676;32522.791;   -6.260;35958.875
669.253;34530.055;   -7.000;37384.730
669.830;34915.969;  -10.190;36779.629
670.407;33688.559;   -9.550;35231.289
670.984;32987.539;   -9.260;35544.270
671.560;31206.242;   -9.280;35466.867
672.137;29462.717;  -11.810;34280.863
672.714;29575.709;  -11.490;34632.863
673.290;30569.643;   -7.740;35135.422
673.867;31205.850;  -10.660;36114.480
674.443;30554.367;  -12.230;36152.859
675.020;29048.527;  -10.450;35327.238
675.596;27483.553;   -9.260;35795.176
676.173;28128.096;  -10.780;35430.355
676.749;28793.318;  -13.690;33549.516
677.326;29945.162;  -11.980;32210.012
677.902;27986.070;   -8.630;32068.871
678.478;26074.629;  -10.730;32583.891
679.054;28021.051;  -10.520;32088.928
679.631;29546.367;  -11.920;30978.848
680.207;30802.994;   -7.490;33160.887
680.783;31804.309;   -9.860;35570.363
681.359;32350.172;  -13.380;36125.184
681.935;31340.092;  -12.480;35240.922
682.511;31944.135;   -7.900;34429.961
683.087;32374.855;   -7.710;34463.680
683.663;32977.164;  -11.480;34648.898
684.239;32569.287;  -14.090;34546.457
684.815;33328.605;   -7.560;35586.375
685.390;33343.137;   -9.910;35821.895
685.966;32927.910;  -11.159;35085.871
686.542;33459.551;  -11.169;34198.230
687.118;32065.660;   -5.959;32847.707
687.693;32165.736;  -10.329;32794.027
688.269;31187.449;  -12.059;33072.367
688.844;32069.650;  -10.909;33141.664
689.420;33641.141;   -8.019;33965.742
689.995;30488.896;   -8.399;34655.523
690.571;29268.902;  -10.949;33576.742
691.146;28443.178;   -9.619;32657.219
691.722;26443.799;   -8.999;32526.979
692.297;25839.574;  -11.589;33014.617
692.872;26852.631;  -11.739;34012.254
693.448;27000.945;  -11.059;34237.434
694.023;28600.619;  -10.139;34142.672
694.598;30404.934;   -9.029;34132.031
695.173;29871.193;  -13.319;34205.250
695.748;27415.467;  -10.169;32882.488
696.323;25281.328;   -8.339;32864.906
696.898;25080.586;   -8.169;33170.004
697.473;28356.379;  -12.309;32432.984
698.048;28443.363;  -10.989;31649.303
698.623;27399.432;   -9.329;30778.141
699.198;28729.262;   -9.849;31140.119
699.773;30037.574;  -12.329;31764.299
700.348;29984.348;  -10.389;31780.816
700.922;28327.324;   -9.269;32046.375
701.497;26739.840;   -9.329;32603.574
702.072;28468.137;  -10.789;34799.871
702.646;28370.836;  -10.839;35793.172
703.221;28841.346;   -9.099;35201.590
703.795;29224.664;  -10.939;34764.527
704.370;27598.051;  -12.859;34307.367
704.944;28787.625;  -11.559;33509.887
705.519;30001.000;   -7.939;31388.584
706.093;31960.303;  -10.499;31340.104
706.668;33058.434;  -11.289;32630.281
707.242;32038.227;  -11.509;32728.779
707.816;30558.027;   -9.639;32947.238
708.390;30191.576;  -11.429;33277.855
708.965;31168.475;  -11.869;33834.336
709.539;31193.846;  -11.689;33709.273
710.113;30509.258;  -10.478;33044.313
710.687;27660.742;  -10.228;31953.992
711.261;26764.404;  -13.698;30505.949
711.835;26480.004;  -13.378;30262.369
712.409;26300.998;   -9.698;31254.447
712.983;26101.521;  -11.898;32754.986
713.557;25219.779;  -15.138;34018.824
714.131;26490.494;  -14.098;34579.625
714.704;26356.871;   -9.958;33890.262
715.278;25577.230;  -10.028;33531.102
715.852;24628.348;  -11.148;33601.660
716.425;24076.793;   -9.068;33515.117
716.999;25664.305;  -10.038;33185.555
717.573;26448.686;   -9.798;33905.996
718.146;27628.314;  -12.378;35199.293
718.720;28265.309;  -11.918;35060.551
719.293;27431.619;   -8.088;34973.230
719.867;26509.961;  -10.888;36394.449
720.440;27320.588;  -11.938;36663.008
721.013;29047.268;  -12.818;35102.426
721.587;30517.598;  -10.298;33985.266
722.160;30399.766;  -10.048;33524.965
722.733;28272.529;  -12.108;32987.043
723.306;25766.471;  -10.818;33066.301
723.880;26012.037;   -8.908;33399.500
724.453;25256.953;   -9.878;33468.297
725.026;25419.404;  -11.188;33816.637
725.599;25625.787;  -11.678;32797.996
726.172;25027.771;   -9.618;33187.434
726.745;25838.354;   -8.258;35136.613
727.318;28580.361;  -12.978;35751.730
727.891;30859.980;  -12.148;35890.430
728.463;31991.980;   -8.968;34822.090
729.036;32115.563;  -10.188;32895.086
729.609;29716.725;  -11.788;31823.225
730.182;28023.311;  -11.788;31445.283
730.754;27327.396;  -10.268;32373.223
731.327;26990.898;   -9.998;33676.820
731.900;26199.193;  -12.228;33417.000
732.472;25338.336;  -13.848;31978.498
733.045;25263.703;   -8.698;30368.777
733.617;24657.449;  -10.607;30574.215
734.190;23264.352;  -11.507;31280.975
734.762;23455.016;  -13.647;31674.412
735.334;24497.943;   -9.767;31247.291
735.907;24613.621;   -9.897;29876.211
736.479;22717.055;  -11.637;29808.488
737.051;22330.463;   -9.567;30233.547
737.623;23215.072;   -8.187;31469.086
738.195;24913.156;  -11.187;31784.225
738.768;25306.090;  -12.337;32120.523
739.340;24707.686;  -12.227;32094.342
739.912;24270.270;  -11.057;31312.680
740.484;25163.998;  -10.207;31946.238
741.056;26260.232;  -10.047;32984.059
741.628;25864.957;  -13.627;33897.715
742.199;26575.205;   -7.177;33213.016
742.771;25051.850;  -10.797;31369.113
743.343;23578.777;  -11.997;31865.473
743.915;23750.182;  -12.867;32388.631
744.487;24343.725;   -7.617;31079.568
745.058;25472.816;   -9.557;30570.107
745.630;25073.820;   -9.877;29970.127
746.201;23786.314;  -14.177;29186.766
746.773;23582.396;   -9.237;28805.723
747.344;23813.668;   -9.847;29591.223
747.916;23924.592;  -11.657;31412.201
748.487;23473.340;  -10.587;32194.898
749.059;23326.703;   -8.707;32533.719
749.630;22418.172;  -10.537;32158.518
750.201;22594.838;  -11.687;30855.395
750.773;22672.807;  -11.647;28622.555
751.344;24021.824;   -7.147;28405.732
751.915;23966.721;   -9.757;28461.551
752.486;23486.703;  -12.427;27842.850
753.057;21956.137;  -12.227;27845.008
753.628;21480.137;  -10.417;27728.107
754.199;21502.338;  -11.767;27381.086
754.770;20945.771;  -11.187;25882.203
755.341;20674.344;  -10.507;25886.184
755.912;21147.262;   -9.387;26050.861
756.483;21405.684;  -10.647;26798.779
757.054;20829.992;  -11.837;27048.238
757.625;19159.084;  -12.716;26294.838
758.195;18761.803;   -9.666;26142.076
758.766;19692.318;   -8.656;26392.234
759.337;19462.615;  -12.856;26334.594
759.907;18808.078;  -13.366;27579.652
760.478;18030.428;   -8.576;28352.770
761.048;18591.719;  -10.526;27325.088
761.619;19146.633;  -11.116;26460.428
762.189;18677.262;  -12.136;26029.826
762.760;18680.090;   -9.456;26430.145
763.330;18962.404;   -7.136;26670.902
763.900;18868.670;  -11.786;26603.021
764.471;18151.322;  -11.546;25542.740
765.041;17995.328;   -8.096;24358.459
765.611;18239.734;   -8.876;23991.297
766.181;18285.211;  -12.196;24470.236
766.751;18849.514;  -11.636;24845.975
767.321;18922.256;  -10.156;24533.633
767.891;18679.898;  -11.766;24916.492
768.461;18291.668;  -14.936;24776.771
769.031;17408.002;  -12.356;24757.988
769.601;17140.381;   -7.526;24181.088
770.171;17643.170;  -10.766;23670.387
770.741;18430.381;  -13.176;22960.045
771.311;18089.410;  -10.616;22917.523
771.880;16646.969;   -9.576;23562.941
772.450;16040.549;  -10.336;24216.500
773.020;16282.698;  -13.516;24140.398
773.589;16250.919;  -13.466;24414.857
774.159;15703.075;   -8.686;23858.717
774.729;15000.105;   -9.476;22942.135
775.298;14977.617;  -13.666;22324.033
775.867;15078.910;  -11.716;21140.313
776.437;14621.302;   -9.906;20838.092
777.006;14518.408;  -12.166;20599.510
777.576;15887.991;  -12.356;20508.809
778.145;15218.873;  -11.646;20732.947
778.714;13932.870;   -8.226;21062.465
779.283;13455.790;   -9.556;20949.664
779.853;13231.192;  -14.116;20508.623
780.422;13583.024;  -11.506;20649.082
780.991;14108.264;   -9.556;21527.520
781.560;14746.747;   -9.095;22632.658
782.129;13622.757;  -12.135;23048.277
782.698;12388.873;  -10.865;23438.555
783.267;11772.170;   -9.335;23267.734
783.836;12039.157;  -11.045;22415.133
784.404;12758.849;  -13.865;20443.152
784.973;13072.340;  -13.095;19699.150
785.542;13058.409;  -11.575;19763.828
786.111;12865.487;   -9.705;20341.408
786.679;12615.836;  -12.105;20207.967
787.248;12223.352;  -12.455;19516.465
787.817;12036.128;  -11.535;18900.363
788.385;11921.496;   -9.765;17879.121
788.954;11838.629;  -14.005;17658.301
789.522;11645.216;  -11.955;17788.879
790.090;10710.104;  -10.135;18118.277
790.659; 9894.739;  -10.975;18338.736
791.227;10012.816;  -13.375;18508.615
791.795;10401.713;  -12.375;17898.254
792.364;10631.599;  -10.725;17295.133
792.932;10980.505;   -9.715;16822.051
793.500;10766.488;  -12.675;17040.148
794.068;11089.259;  -13.495;17179.787
794.636;11195.103;  -10.885;16664.246
795.204;10829.160;  -11.045;16524.545
795.772;10730.728;  -13.175;17274.564
796.340;10424.266;  -12.445;17891.002
796.908;10579.677;   -9.735;17648.561
797.476;10936.787;   -9.815;17064.080
798.044;10712.799;  -13.985;16672.777
798.612;10275.698;  -13.115;17023.996
799.180; 9385.398;  -10.185;16561.615
799.747; 9021.900;   -9.055;15962.773
800.315; 9243.604;  -12.385;15296.992
800.883; 8629.805;  -15.035;14801.771
801.450; 7877.514;  -10.365;14534.430
802.018; 7586.037;   -9.855;14173.248
802.585; 7535.959;  -11.905;14029.547
803.153; 7714.602;  -11.585;13836.846
803.720; 7522.642;   -9.095;13567.324
804.287; 7425.608;   -9.135;13360.622
804.855; 7566.860;  -11.604;13681.981
805.422; 7944.815;  -11.794;13536.560
805.989; 8219.329;  -10.734;13355.958
806.556; 8149.779;  -10.444;13747.896
807.124; 8387.493;  -12.764;13987.376
807.691; 8791.006;  -12.964;14038.674
808.258; 8843.778;  -11.134;14120.152
808.825; 8811.146;   -9.854;13860.111
809.392; 8359.696;  -10.504;13268.790
809.959; 7607.672;  -13.054;12680.389
810.526; 6907.466;   -8.294;12427.308
811.093; 6270.942;   -8.394;12030.105
811.659; 6048.889;  -12.304;11653.664
812.226; 6218.167;  -13.944;11637.183
812.793; 6580.728;  -10.484;11611.521
813.360; 6686.559;  -10.144;11885.181
813.926; 6656.416;  -11.684;12770.539
814.493; 6586.021;  -13.644;12677.638
815.060; 6480.173;   -9.724;11974.336
815.626; 6625.585;   -9.854;11594.715
816.193; 6616.060;  -13.254;11579.474
816.759; 6032.914;  -13.204;11666.972
817.325; 5656.219;   -9.434;11325.530
817.892; 5573.026;  -10.134;11105.369
818.458; 5715.482;  -13.474;10843.928
819.024; 6120.012;  -11.854;10714.406
819.591; 6222.667;  -10.244;10469.165
820.157; 6039.564;  -10.704;10235.523
820.723; 6000.504;  -12.324;10847.563
821.289; 5881.618;   -9.444;11040.980
821.855; 5891.239;   -8.374;10357.100
822.421; 6140.119;  -10.234; 9978.918
822.987; 6135.235;  -13.294; 9754.177
823.553; 5925.765;  -10.884;10065.755
824.119; 5741.152;   -8.884;10036.294
824.685; 5300.944;   -6.784;10029.192
825.251; 5221.493;  -12.004;10199.230
825.816; 4975.741;  -11.474; 9820.189
826.382; 4769.964;   -9.174; 9297.248
826.948; 5033.614;   -9.214; 9381.347
827.513; 5439.927;  -10.774; 9450.726
828.079; 5550.150;  -11.924; 9472.444
828.645; 5383.992;  -10.543; 9292.643
829.210; 5252.078;  -10.533; 9065.341
829.776; 5151.065;  -10.753; 9132.620
830.341; 5287.115;  -10.173; 9092.878
830.906; 5356.591;  -10.743; 9078.557
831.472; 5191.254;  -11.113; 8534.535
832.037; 4882.820;  -10.603; 8677.874
832.602; 4774.555;  -13.323; 8628.692
833.167; 4595.253;  -10.823; 8879.031
833.733; 4504.402;  -10.113; 9189.790
834.298; 4382.132;  -13.583; 9052.608
834.863; 4544.706;  -12.703; 8895.087
835.428; 4731.324;  -10.523; 8824.266
835.993; 4642.065;   -6.963; 8845.385
836.558; 4615.420;  -10.763; 8888.563
837.123; 4792.970;   -9.903; 8966.582
837.688; 5174.979;   -9.913; 8617.860
838.253; 5208.040;  -10.283; 8590.699
838.817; 4888.413;  -12.963; 8443.797
839.382; 4800.450;  -14.243; 8799.356
839.947; 4936.163;  -10.733; 8810.595
840.511; 4925.699;   -9.383; 8796.394
841.076; 4784.673;  -12.563; 8347.231
841.641; 4654.932;  -12.953; 8224.330
842.205; 4545.614;   -7.043; 8223.349
842.770; 4361.716;   -8.163; 8622.107
843.334; 4527.754;  -12.503; 8410.386
843.898; 4677.792;  -11.693; 8337.465
844.463; 4253.672;  -10.203; 8506.283
845.027; 3957.213;   -9.533; 8280.962
845.591; 3986.482;  -13.443; 8231.141
846.156; 4039.497;  -13.143; 7969.179
846.720; 3872.730;   -9.433; 7768.278
847.284; 3776.694;  -11.033; 7630.957
847.848; 3758.687;  -10.403; 7472.395
848.412; 3606.876;  -11.553; 7437.394
848.976; 3541.013;   -8.393; 7674.592
849.540; 3522.955;   -8.713; 7836.011
850.104; 3488.981;  -12.463; 7913.669
850.668; 3536.929;  -12.973; 7694.508
851.232; 3500.542;  -10.793; 7756.887
851.796; 3531.408;  -10.662; 7926.545
852.359; 3627.382;  -13.082; 7827.844
852.923; 3591.061;  -12.192; 7641.163
853.487; 3563.966;  -11.912; 7342.501
854.050; 3406.924;  -10.892; 7042.820
854.614; 3455.146;  -13.992; 7151.338
855.177; 3519.340;  -11.732; 7105.077
855.741; 3393.107;   -8.962; 6989.675
856.304; 3270.033;   -9.442; 6596.634
856.868; 3154.146;  -14.192; 6356.272
857.431; 3105.802;  -12.702; 6468.571
857.995; 3105.275;   -9.942; 6373.210
858.558; 3178.538;   -9.112; 6324.448
859.121; 3060.642;  -12.932; 6408.327
859.684; 2890.485;  -13.442; 6347.886
860.247; 2833.073;  -10.632; 6321.264
860.810; 2793.659;  -11.272; 6301.903
861.374; 2721.724;   -9.832; 6607.881
861.937; 2629.956;  -11.762; 6408.200
862.500; 2630.769;   -9.722; 6572.639
863.062; 2609.491;  -10.512; 6387.297
863.625; 2585.556;  -11.232; 6190.836
864.188; 2607.348;  -14.112; 5807.254
864.751; 2617.532;  -11.302; 5682.413
865.314; 2517.660;  -10.112; 5547.492
865.876; 2361.082;  -12.182; 5500.150
866.439; 2211.659;  -10.722; 5415.909
867.002; 2117.792;   -9.252; 5501.567
867.564; 2164.094;   -9.572; 5413.946
868.127; 2201.648;  -13.142; 5160.325
868.689; 2278.398;  -12.902; 5133.183
869.252; 2378.366;   -9.732; 5252.382
869.814; 2306.767;   -9.432; 5297.141
870.377; 2208.751;  -11.552; 5390.919
870.939; 2208.727;   -9.052; 5599.898
871.501; 2166.078;  -10.982; 5248.336
872.063; 2058.202;  -12.292; 4854.235
872.626; 1995.729;  -14.912; 4817.074
873.188; 1903.655;  -13.112; 4987.732
873.750; 1864.725;  -13.442; 4868.651
874.312; 1818.062;   -9.402; 4779.330
874.874; 1780.033;  -11.062; 4866.348
875.436; 1688.985;  -13.931; 4718.887
875.998; 1588.029;   -9.561; 4660.005
876.560; 1576.910;  -11.321; 4462.964
877.122; 1632.603;  -12.221; 4145.042
877.683; 1732.810;  -12.191; 4056.481
878.245; 1754.283;  -12.101; 3950.740
878.807; 1768.227;   -8.971; 4058.958
879.369; 1718.918;  -12.071; 3954.677
879.930; 1604.730;  -14.621; 3941.495
880.492; 1527.273;  -10.311; 4067.014
881.053; 1524.344;  -10.901; 3859.633
881.615; 1510.725;  -14.411; 3776.071
882.176; 1446.282;  -13.761; 3734.750
882.738; 1380.825;   -9.181; 3678.489
883.299; 1375.058;  -11.791; 3405.407
883.860; 1392.481;  -13.121; 3351.106
884.422; 1340.566;  -11.211; 3394.044
884.983; 1255.386;  -10.091; 3166.443
885.544; 1208.415;   -8.461; 3189.802
886.105; 1153.209;  -12.361; 3160.360
886.666; 1096.133;  -14.141; 3093.059
887.227; 1063.612;  -11.361; 2941.957
887.788; 1010.864;  -11.401; 2974.836
888.349;  923.693;  -13.791; 2721.214
888.910;  886.205;  -13.191; 2696.493
889.471;  854.170;   -9.881; 2560.172
890.032;  858.607;   -9.881; 2558.190
890.593;  852.161;  -10.371; 2567.669
891.153;  774.040;  -13.301; 2460.307
891.714;  669.966;  -11.431; 2372.046
892.275;  629.897;  -11.291; 2309.505
892.835;  639.132;  -11.471; 2382.543
893.396;  628.032;  -11.541; 2295.502
893.956;  598.235;  -11.181; 2162.420
894.517;  563.769;  -11.741; 2125.439
895.077;  518.141;  -11.671; 2086.978
895.638;  479.975;  -11.311; 2126.316
896.198;  465.413;   -9.831; 1838.275
896.758;  452.263;   -8.421; 1892.813
897.319;  433.812;  -12.351; 1792.232
897.879;  416.358;  -13.511; 1762.751
898.439;  385.009;  -12.001; 1661.149
898.999;  366.383;  -10.180; 1781.468
899.559;  360.593;  -12.030; 1703.347
900.119;  352.345;  -15.710; 1537.525
900.679;  340.024;   -8.900; 1638.384
901.239;  320.627;   -8.340; 1527.902
901.799;  294.898;  -13.910; 1456.441
902.359;  273.498;  -13.460; 1357.140
902.919;  265.716;  -11.490; 1331.118
903.479;  264.894;  -12.110; 1317.257
904.038;  260.439;  -11.720; 1262.595
904.598;  252.148;  -13.610; 1152.034
905.158;  241.938;  -11.040; 1240.893
905.717;  226.098;  -10.900; 1233.691
906.277;  217.198;  -15.080; 1217.330
906.836;  216.031;  -13.380; 1222.408
907.396;  213.893;  -10.780; 1193.047
907.955;  206.602;   -8.500; 1182.526
908.515;  201.238;  -12.760; 1099.364
909.074;  201.098;  -11.900; 1092.863
909.633;  199.973;   -8.950; 1069.121
910.192;  197.987;   -8.770; 1196.460
910.752;  186.762;  -12.390; 1029.960
911.311;  178.115;  -13.680; 1009.780
911.870;  168.703;  -12.370;  971.460
912.429;  163.818;  -10.900; 1094.080
912.988;  161.481;  -11.690; 1081.060
913.547;  159.652;  -13.240;  940.380
914.106;  157.459;  -11.990;  999.420
914.665;  155.874;   -9.990;  984.020
915.224;  155.091;  -12.880; 1035.760
915.782;  152.046;  -12.350;  922.560
916.341;  151.417;   -9.110; 1049.840
916.900;  148.502;   -9.270;  925.260
917.458;  146.320;  -13.240;  884.220
918.017;  145.821;  -13.550;  942.600
918.576;  143.838;  -12.320;  904.440
919.134;  141.423;  -11.490;  837.980
919.693;  139.967;  -13.670;  893.060
920.251;  139.410;  -15.470;  876.500
920.809;  139.105;  -11.290;  839.580
921.368;  138.595;  -10.210;  885.360
921.926;  136.269;  -12.140;  842.940
922.484;  134.479;  -13.080;  903.360
923.042;  132.704;  -11.720;  880.340
923.601;  133.862;   -7.480;  998.680
924.159;  131.198;  -11.570;  935.560
924.717;  129.562;  -13.840;  841.080
925.275;  130.018;  -10.640;  903.240
925.833;  128.037;  -11.540;  779.320
926.391;  129.617;  -12.960;  938.380
926.949;  129.535;  -14.130;  857.680
927.506;  128.503;  -11.750;  903.500
928.064;  128.571;  -10.250;  877.580
928.622;  129.921;  -13.030;  880.100
929.180;  131.991;  -13.400;  814.180
929.737;  133.880;  -10.700;  808.540
930.295;  135.410;  -10.070;  928.480
930.853;  135.516;  -11.960;  849.100
931.410;  136.203;  -13.120;  821.120
931.968;  137.880;  -10.770;  940.660
932.525;  138.520;  -10.680;  909.380
933.082;  137.356;  -13.130;  811.440
933.640;  138.684;  -13.210;  925.900
934.197;  138.877;  -11.060;  886.360
934.754;  138.766;   -9.580;  897.780
935.312;  140.039;  -14.000;  863.340
935.869;  141.579;  -10.710; 1012.980
936.426;  140.215;   -9.860;  872.800
936.983;  140.254;   -9.710;  889.020
937.540;  140.582;  -13.990;  838.280
938.097;  146.621;  -14.040;  940.120
938.654;  149.655;  -10.310;  898.860
939.211;  150.189;  -10.560;  952.480
939.768;  150.234;  -13.900;  915.420
940.324;  152.182;  -14.760;  904.200
940.881;  153.910;  -10.370;  878.500
941.438;  158.218;   -8.260; 1021.200
941.995;  157.137;  -12.540;  992.560
942.551;  156.983;  -14.670;  875.620
943.108;  157.845;  -10.450;  937.920
943.664;  157.723;  -10.750;  869.340
944.221;  162.276;  -11.550; 1088.140
944.777;  163.332;  -14.770;  869.680
945.334;  160.405;  -12.820;  884.840
945.890;  155.766;  -10.130;  946.480
946.446;  153.155;  -13.470;  947.020
947.003;  154.694;  -12.120;  964.940
947.559;  155.655;   -9.980; 1063.040
948.115;  150.628;   -9.080; 1026.540
948.671;  147.737;  -10.830;  967.300
949.227;  148.049;  -12.440;  859.560
949.783;  148.001;  -12.910;  858.900
950.339;  152.400;  -10.270;  991.000
950.895;  153.365;  -13.630; 1023.840
951.451;  153.095;  -15.100;  925.280
952.007;  150.467;  -11.330;  998.540
952.563;  147.153;  -10.580;  937.780
953.118;  145.027;  -13.440;  904.940
953.674;  143.028;  -12.710;  935.780
954.230;  146.159;  -10.350;  949.640
954.785;  149.533;   -9.190;  936.640
955.341;  151.195;  -11.200;  998.160
955.897;  144.838;  -16.560;  834.660
956.452;  142.617;  -12.570;  953.840
957.008;  141.449;   -7.970; 1083.640
957.563;  137.004;  -11.940; 1009.540
958.118;  132.772;  -13.450;  877.700
958.674;  132.407;  -12.030;  946.780
959.229;  132.773;   -9.410; 1013.980
959.784;  132.973;  -12.000;  832.400
960.339;  133.903;  -14.780; 1001.280
960.894;  131.741;   -9.860;  963.760
961.449;  128.502;   -9.970;  859.960
962.004;  128.945;  -10.900; 1212.840
962.559;  126.421;  -13.150;  860.140
963.114;  123.432;  -13.740;  742.480
963.669;  122.402;   -9.820;  915.500
964.224;  121.683;  -13.890;  874.340
964.779;  121.802;  -12.600;  828.420
965.334;  123.698;  -10.950; 1017.860
965.888;  121.525;  -11.170;  875.360
966.443;  122.176;  -12.540;  972.380
966.998;  119.226;  -15.780;  819.460
967.552;  117.747;   -9.760;  908.380
968.107;  115.585;   -9.060;  868.300
968.661;  115.442;  -11.950;  922.440
969.216;  113.528;  -12.800;  856.280
969.770;  110.434;  -11.210;  917.200
970.324;  110.437;  -11.610;  923.140
970.879;  111.828;  -11.370;  947.180
971.433;  113.963;  -12.540;  952.720
971.987;  112.891;  -11.320;  895.340
972.541;  110.608;  -10.720;  917.100
973.095;  109.692;   -9.680; 1009.460
973.649;  106.781;  -11.440;  809.480
974.203;  103.892;  -11.210;  829.040
974.757;  103.312;  -10.240;  855.220
975.311;  103.090;  -13.720;  872.600
975.865;  103.177;  -13.770;  881.820
976.419;  100.580;  -11.690;  857.400
976.973;   97.828;   -9.510;  849.620
977.526;   96.474;  -12.620;  949.920
978.080;   95.044;  -12.010;  796.780
978.634;   94.848;  -10.170;  921.320
979.187;   93.494;   -9.020;  905.400
979.741;   95.526;   -9.820; 1018.380
980.294;   93.253;  -14.870;  789.160
980.848;   92.140;  -12.380;  717.220
981.401;   92.511;  -10.350;  816.540
981.955;   90.733;  -13.720;  844.300
982.508;   87.189;  -11.490;  746.340
983.061;   87.086;  -10.000;  915.260
983.615;   84.421;  -11.480;  798.800
984.168;   83.334;  -13.220;  770.080
984.721;   83.120;  -13.960;  880.760
985.274;   80.571;  -10.870;  867.500
985.827;   78.570;   -9.790;  834.220
986.380;   76.736;  -13.120;  721.340
986.933;   76.184;  -12.450;  864.800
987.486;   75.419;  -10.210;  861.920
988.039;   75.915;   -8.430;  863.100
988.591;   74.692;  -10.520;  893.260
989.144;   73.376;  -14.860;  737.260
989.697;   71.351;  -13.080;  758.740
990.250;   70.842;  -10.150;  858.100
990.802;   69.272;  -13.430;  755.860
991.355;   68.684;  -12.750;  974.880
991.907;   67.210;  -12.040;  864.320
992.460;   65.735;  -11.330;  753.760
993.012;   64.300;  -13.610;  749.540
993.565;   62.167;  -13.460;  711.360
994.117;   63.778;   -9.360;  950.780
994.669;   59.787;  -11.300;  701.320
995.221;   59.645;  -13.540;  791.920
995.774;   59.114;  -13.430;  787.580
996.326;   57.809;  -12.520;  740.220
996.878;   56.406;  -10.950;  838.420
997.430;   54.362;  -14.300;  699.860
997.982;   54.162;  -13.760;  750.140
998.534;   53.098;  -11.530;  739.060
999.086;   51.789;  -10.310;  738.220
999.638;   50.969;  -12.530;  661.380
1000.190;   50.221;  -11.840;  699.320
1000.741;   49.732;  -10.260;  742.700
1001.293;   49.209;   -8.860;  686.020
1001.845;   48.548;  -13.700;  676.640
1002.396;   48.464;  -12.100;  743.400
1002.948;   47.648;  -12.760;  737.400
1003.500;   45.233;  -10.380;  723.780
1004.051;   46.658;  -11.900;  907.580
1004.603;   45.777;  -12.250;  791.820
1005.154;   41.844;  -13.210;  608.980
1005.705;   41.159;  -10.950;  723.960
1006.257;   40.615;  -13.880;  707.220
1006.808;   40.331;  -12.840;  685.460
1007.359;   39.576;  -10.570;  763.240
1007.910;   39.102;   -9.620;  646.640
1008.461;   38.046;  -13.630;  732.940
1009.013;   37.857;  -17.200;  588.340
1009.564;   38.484;  -10.200;  793.520
1010.115;   36.637;  -12.570;  597.040
1010.665;   36.378;  -15.150;  602.160
1011.216;   36.371;  -14.480;  667.920
1011.767;   36.177;  -11.340;  697.920
1012.318;   36.415;   -9.780;  736.980
1012.869;   35.267;  -12.380;  679.000
1013.419;   34.390;  -15.560;  603.120
1013.970;   35.485;  -11.010;  666.640
1014.521;   34.354;  -11.610;  620.620
1015.071;   34.511;  -13.450;  670.380
1015.622;   34.207;  -13.870;  635.460
1016.172;   33.676;  -11.610;  596.820
1016.723;   32.755;  -12.120;  614.380
1017.273;   32.691;  -13.620;  604.160
1017.823;   33.161;  -14.140;  650.340
1018.374;   32.136;  -12.800;  611.760
1018.924;   32.225;  -12.340;  716.880
1019.474;   32.695;  -11.410;  718.880
1020.024;   30.991;  -14.770;  657.580
1020.574;   32.459;   -9.780;  726.160
1021.124;   31.809;   -8.560;  673.580
1021.674;   30.680;  -15.190;  559.120
1022.224;   32.107;  -13.530;  708.940
1022.774;   31.169;  -13.280;  668.820
1023.324;   32.105;  -10.690;  753.520
1023.874;   32.278;  -10.240;  875.760
1024.423;   30.081;  -12.540;  613.700
1024.973;   29.710;  -10.010;  610.760
1025.523;   28.219;  -10.550;  620.960
1026.072;   29.018;  -13.560;  606.420
1026.622;   29.489;  -15.120;  675.740
1027.172;   30.155;  -11.260;  715.660
1027.721;   28.904;  -11.410;  601.220
1028.270;   28.648;  -13.530;  663.400
1028.820;   28.464;  -13.680;  638.080
1029.369;   28.694;  -13.520;  612.700
1029.918;   28.379;  -10.980;  649.840
1030.468;   28.319;  -13.530;  564.780
1031.017;   28.170;  -13.170;  634.800
1031.566;   27.118;  -12.200;  608.900
1032.115;   28.189;   -9.960;  694.500
1032.664;   25.934;  -13.210;  596.480
1033.213;   27.708;  -12.500;  735.420
1033.762;   26.543;  -11.910;  635.620
1034.311;   25.764;   -9.640;  677.220
1034.860;   26.890;  -13.310;  691.000
1035.408;   26.609;  -11.830;  722.720
1035.957;   26.769;  -12.000;  719.540
1036.506;   24.492;  -11.690;  530.800
1037.055;   27.191;  -10.990;  844.320
1037.603;   25.633;  -15.120;  664.000
1038.152;   24.023;  -12.450;  534.760
1038.700;   24.759;  -10.560;  585.740
1039.249;   24.282;  -11.080;  681.220
1039.797;   25.352;  -12.540;  633.360
1040.345;   24.579;  -11.920;  705.420
1040.894;   24.389;  -11.410;  625.300
1041.442;   23.422;  -14.320;  632.200
1041.990;   23.097;  -16.240;  559.160
1042.538;   23.643;  -11.680;  536.180
1043.087;   23.378;  -10.760;  570.860
1043.635;   24.069;  -11.850;  670.500
1044.183;   23.144;  -15.480;  586.400
1044.731;   22.900;  -11.770;  576.000
1045.279;   22.842;  -13.090;  674.920
1045.827;   24.584;  -12.440;  892.400
1046.374;   22.280;  -13.840;  515.420
1046.922;   21.478;  -13.220;  590.580
1047.470;   22.954;  -10.230;  691.300
1048.018;   22.199;  -14.590;  647.960
1048.565;   23.692;  -12.050;  708.600
1049.113;   21.564;  -11.650;  557.000
1049.660;   21.264;  -10.510;  629.660
1050.208;   21.533;  -13.310;  675.640
1050.755;   20.658;  -15.900;  606.580
1051.303;   22.029;  -11.430;  686.820
1051.850;   20.499;   -8.480;  635.120
1052.397;   19.240;  -15.010;  473.960
1052.945;   20.259;  -13.960;  617.760
1053.492;   21.796;  -13.150;  741.840
1054.039;   21.548;   -9.630;  720.180
1054.586;   20.378;  -13.680;  557.240
1055.133;   20.886;  -14.570;  693.140
1055.680;   21.176;  -13.820;  646.620
1056.227;   18.995;  -11.730;  542.780
1056.774;   21.530;  -12.480;  794.980
1057.321;   19.125;  -13.930;  523.260
1057.868;   19.356;  -11.690;  651.320
1058.415;   19.596;   -9.520;  651.980
1058.961;   19.904;  -13.160;  678.940
1059.508;   19.678;  -12.920;  643.820
1060.055;   18.755;  -11.920;  581.780
1060.601;   18.830;  -11.500;  624.300
1061.148;   18.872;  -14.330;  616.820
1061.694;   17.899;  -16.870;  592.580
1062.241;   18.125;  -10.330;  596.320
1062.787;   18.460;  -10.620;  663.140
1063.334;   19.513;  -10.110;  808.560
1063.880;   18.234;  -13.400;  668.360
1064.426;   18.500;  -10.680;  706.820
1064.972;   17.384;   -9.920;  601.340
1065.518;   16.321;  -10.980;  566.640
1066.065;   17.982;  -14.890;  624.460
1066.611;   16.415;  -12.870;  598.800
1067.157;   17.218;  -12.950;  641.860
1067.703;   17.476;  -13.540;  668.480
1068.249;   16.969;  -13.540;  605.220
1068.794;   16.778;  -12.600;  626.880
1069.340;   15.927;  -10.620;  578.960
1069.886;   16.465;  -12.830;  590.700
1070.432;   15.182;  -14.870;  541.720
1070.977;   15.613;  -11.980;  601.080
1071.523;   15.974;   -8.200;  573.060
1072.068;   16.167;  -12.330;  582.000
1072.614;   15.298;  -16.370;  527.760
1073.160;   15.960;  -11.100;  687.040
1073.705;   14.804;  -10.480;  572.520
1074.250;   14.447;  -14.520;  559.900
1074.796;   16.344;  -11.460;  655.160
1075.341;   15.542;  -11.950;  664.100
1075.886;   14.915;  -11.460;  594.240
1076.431;   14.324;  -13.770;  649.880
1076.976;   14.493;  -12.680;  639.220
1077.521;   13.943;  -13.170;  583.080
1078.067;   13.800;  -10.860;  579.400
1078.612;   14.787;  -13.920;  661.620
1079.156;   14.391;  -13.880;  601.540
1079.701;   14.390;  -13.120;  693.260
1080.246;   14.952;   -9.940;  696.300
1080.791;   13.736;  -14.740;  625.020
1081.336;   13.947;  -13.750;  659.320
1081.880;   13.960;  -13.400;  649.680
1082.425;   13.462;  -12.220;  573.480
1082.970;   14.412;  -11.610;  717.040
1083.514;   13.033;  -13.580;  597.000
1084.059;   13.401;  -12.810;  586.720
1084.603;   12.395;  -12.320;  565.840
1085.147;   12.510;  -13.190;  645.220
1085.692;   14.177;  -12.480;  716.800
1086.236;   11.619;  -13.020;  503.140
1086.780;   13.624;   -9.190;  751.440
1087.325;   12.418;  -12.480;  654.620
1087.869;   12.474;  -12.450;  610.700
1088.413;   12.708;  -12.240;  705.040
1088.957;   11.033;   -9.020;  543.400
1089.501;   12.790;  -10.320;  766.640
1090.045;   12.252;  -12.720;  726.480
1090.589;   11.236;  -13.690;  569.920
1091.133;   12.020;  -10.020;  673.340
1091.676;   11.248;  -12.330;  591.940
1092.220;   11.773;  -14.970;  600.920
1092.764;   12.393;  -12.430;  706.960
1093.307;   11.785;   -9.800;  673.780
1093.851;    9.870;  -14.970;  556.540
1094.395;   11.076;  -15.310;  683.140
1094.938;   10.941;  -10.370;  632.520
1095.482;   10.427;  -11.050;  559.800
1096.025;   11.627;  -11.840;  710.880
1096.568;   11.423;  -12.840;  779.280
1097.112;    9.181;  -14.700;  508.180
1097.655;   10.412;   -8.720;  603.000
1098.198;    9.312;  -13.610;  600.180
1098.741;    9.302;  -13.350;  612.860
1099.285;   10.401;  -11.230;  657.300
1099.828;    8.369;  -11.840;  439.400
1100.371;    9.604;  -10.840;  608.160
1100.914;    9.535;  -14.190;  682.660
1101.457;    8.958;  -11.240;  679.900
1101.999;    7.890;  -11.270;  584.680
1102.542;    9.097;  -11.480;  641.440
1103.085;    8.870;  -11.750;  658.500
1103.628;    9.746;  -11.400;  762.060
1104.170;    8.545;  -10.490;  588.280
1104.713;    9.199;  -10.600;  646.700
1105.256;    8.135;  -14.360;  557.440
1105.798;    7.609;  -13.210;  499.980
1106.341;    9.517;  -10.270;  728.900
1106.883;    7.878;  -12.200;  521.340
1107.425;    8.399;  -13.110;  668.180
1107.968;    8.189;  -12.840;  612.380
1108.510;    8.908;   -6.480;  684.960
1109.052;    7.494;  -13.940;  612.620
1109.594;    7.243;  -13.690;  554.440
1110.136;    7.719;  -11.880;  643.220
1110.679;    7.345;   -9.500;  633.080
1111.221;    7.069;  -14.160;  604.460
1111.763;    7.571;  -13.980;  559.220
1112.304;    6.598;  -13.880;  547.140
1112.846;    7.398;  -12.210;  666.240
1113.388;    9.643;  -11.390;  942.180
1113.930;    7.346;  -14.540;  694.200
1114.472;    6.782;  -12.640;  606.540
1115.013;    5.806;  -11.620;  551.280
1115.555;    6.192;  -13.640;  587.100
1116.097;    5.250;  -15.380;  579.480
1116.638;    6.817;  -12.640;  684.600
1117.180;    6.359;   -9.850;  667.740
1117.721;    6.326;  -13.690;  568.580
1118.262;    6.936;  -12.680;  677.960
1118.804;    6.455;  -12.530;  637.340
1119.345;    5.366;  -11.690;  578.400
1119.886;    5.804;  -13.380;  704.040
1120.427;    5.336;  -14.070;  589.020
1120.969;    4.485;  -13.500;  597.920
1121.510;    5.490;  -11.480;  563.060
1122.051;    5.327;  -12.830;  723.580
1122.592;    4.595;  -14.290;  655.420
1123.133;    3.908;  -12.400;  547.940
1123.673;    5.850;  -10.130;  706.480
1124.214;    4.681;  -12.930;  612.460
1124.755;    4.537;  -14.380;  639.460
1125.296;    4.804;  -14.000;  627.320
1125.836;    5.158;  -10.070;  691.500
1126.377;    3.796;  -12.640;  599.660
1126.918;    4.999;  -12.960;  614.980
1127.458;    4.158;  -13.350;  622.220
1127.999;    5.142;  -10.750;  656.980
1128.539;    4.895;  -12.350;  694.240
1129.079;    4.613;  -14.860;  632.720
1129.620;    3.354;  -13.840;  558.100
1130.160;    3.865;  -12.330;  539.480
1130.700;    4.386;  -14.530;  640.840
1131.240;    4.842;  -12.530;  643.700
1131.781;    3.530;  -14.450;  619.680
1132.321;    3.357;   -9.790;  599.120
1132.861;    3.073;  -14.860;  564.200
1133.401;    2.576;  -14.290;  593.940
1133.941;    3.757;  -11.750;  626.280
1134.481;    2.780;   -9.920;  597.580
1135.020;    2.696;  -12.290;  609.160
1135.560;    3.805;  -11.650;  674.940
1136.100;    2.778;  -16.270;  501.160
1136.640;    2.605;  -10.890;  510.480
1137.179;    2.078;  -14.180;  537.960
1137.719;    2.679;  -16.250;  605.400
1138.258;    2.697;  -14.230;  587.360
1138.798;    2.787;   -9.090;  663.780
1139.337;    1.240;  -15.130;  482.840
1139.877;    2.880;  -13.680;  642.360
1140.416;    4.312;  -11.320;  878.060
1140.955;    1.307;  -10.860;  535.380
1141.494;    2.720;  -12.920;  669.280
1142.034;    1.630;  -13.930;  583.520
1142.573;    2.501;  -11.440;  646.280
1143.112;    1.018;  -12.000;  553.480
1143.651;    1.151;  -13.670;  536.480
1144.190;    2.319;  -12.730;  691.640
1144.729;    1.551;  -14.560;  607.420
1145.267;    1.252;  -11.830;  584.900
1145.806;    2.282;  -12.230;  637.040
1146.345;    1.403;  -14.130;  635.020
1146.884;    1.400;  -11.590;  622.500
1147.422;    0.838;  -12.550;  533.060
1147.961;    2.418;  -11.180;  708.460
1148.500;    2.259;  -11.510;  669.720
1149.038;    1.791;  -11.640;  632.500
1149.577;    1.323;  -10.130;  698.640
1150.115;    0.194;  -13.970;  452.280
1150.653;    0.613;  -14.520;  607.340
1151.192;    1.377;  -12.810;  552.920
1151.730;    0.631;   -9.100;  652.560
1152.268;    0.195;  -12.220;  589.520
1152.806;    0.379;  -14.140;  571.180
1153.344;    0.186;  -12.350;  577.640
1153.882;    0.480;   -8.980;  600.060
1154.421;   -0.636;  -15.190;  470.620
1154.958;   -0.294;  -15.210;  595.240
1155.496;    1.239;  -12.850;  645.280
1156.034;    0.204;   -9.940;  721.880
1156.572;    0.877;  -13.570;  667.060
1157.110;   -1.027;  -14.590;  473.940
1157.647;    0.383;  -13.030;  676.960
1158.185;   -0.208;  -12.140;  564.320
1158.723;   -1.564;  -14.390;  509.200
1159.260;    0.534;  -14.090;  701.700
1159.798;    0.655;  -11.920;  658.160
1160.335;   -0.609;  -11.110;  631.820

