
Integration time [ms]:   3.276
Averaging Nr. [scans]: 1000
Smoothing Nr. [pixels]: 0
Data measured with spectrometer [name]: 7414430SP
Wave   ;Sample   ;Dark     ;Reference
[nm]   ;[counts] ;[counts] ;[counts] 

288.544;  148.214;    7.793;  793.890
289.143;  153.658;    7.462;  681.602
289.742;  154.315;    8.602;  828.814
290.341;  138.465;    1.321;  789.841
290.940;  127.403;   -0.709;  730.702
291.538;  129.158;    0.881;  881.108
292.137;  127.923;    0.122;  792.581
292.736;  132.602;   -1.929;  975.101
293.335;  129.327;   -8.229;  735.086
293.934;  130.606;   -5.279;  781.677
294.532;  129.271;   -1.369; 1031.958
295.131;  114.442;   -7.641;  834.394
295.730;  114.863;   -8.420;  809.588
296.328;  113.891;   -5.611;  783.442
296.927;  115.221;   -5.781;  779.652
297.525;  115.884;   -6.361;  781.236
298.124;  105.955;  -11.382;  654.009
298.722;  109.482;   -7.641;  761.933
299.321;  107.434;   -6.811;  708.597
299.919;  105.474;   -6.991;  751.918
300.518;  102.269;  -10.362;  689.338
301.116;  104.877;   -9.581;  691.381
301.715;  104.404;   -4.891;  730.222
302.313;  102.873;   -8.801;  704.943
302.911;   98.898;   -8.522;  733.830
303.509;  103.958;   -6.171;  925.627
304.108;  101.660;   -7.311;  760.383
304.706;  100.740;   -8.321;  801.664
305.304;   94.966;  -10.222;  796.707
305.902;  101.262;   -6.021;  784.484
306.500;   95.725;   -4.971;  728.200
307.098;   95.268;   -7.061;  746.560
307.696;   92.184;   -8.801;  780.432
308.294;   93.056;   -6.411;  731.359
308.892;   95.759;   -2.901;  759.769
309.490;   90.925;   -5.041;  712.161
310.088;   89.966;   -5.002;  788.444
310.686;   93.933;   -2.041;  821.749
311.284;   90.039;   -2.351;  766.040
311.882;   87.860;   -4.422;  731.225
312.480;   84.047;   -4.192;  697.167
313.078;   85.832;   -1.172;  808.331
313.675;   87.127;   -2.601;  691.600
314.273;   81.280;   -1.312;  797.837
314.871;   81.701;   -3.942;  589.829
315.468;   79.798;   -2.802;  652.090
316.066;   82.009;   -0.701;  694.427
316.664;   74.490;   -4.362;  656.351
317.261;   78.416;   -2.872;  910.128
317.859;   74.741;   -2.022;  768.735
318.456;   75.268;   -0.531;  830.096
319.054;   70.791;   -3.912;  787.828
319.651;   70.418;   -4.752;  759.928
320.249;   69.278;   -2.602;  810.188
320.846;   66.647;   -0.821;  714.286
321.443;   63.602;   -4.642;  832.135
322.041;   60.596;   -5.002;  812.315
322.638;   59.093;   -3.982;  701.456
323.235;   60.351;   -3.411;  665.683
323.833;   57.009;   -7.361;  740.354
324.430;   52.298;   -8.611;  615.900
325.027;   53.898;   -4.061;  876.855
325.624;   53.005;   -4.031;  644.532
326.221;   49.936;   -7.481;  689.717
326.818;   50.055;   -5.281;  818.332
327.415;   53.897;   -7.460;  748.828
328.012;   52.677;   -5.510;  690.585
328.609;   51.431;   -7.880;  731.389
329.206;   48.854;   -8.331;  778.621
329.803;   49.891;   -5.121;  737.841
330.400;   52.669;   -4.510;  704.260
330.997;   53.934;   -6.441;  817.147
331.594;   52.269;   -8.831;  788.185
332.191;   57.741;   -7.621;  728.722
332.787;   60.060;   -4.591;  844.463
333.384;   58.327;   -7.412;  763.093
333.981;   57.245;   -8.293;  815.687
334.578;   59.975;   -7.052;  708.378
335.174;   63.056;   -3.102;  731.469
335.771;   62.224;   -5.943;  836.456
336.367;   58.914;   -7.393;  710.631
336.964;   63.179;   -4.063;  793.266
337.561;   60.724;   -3.813;  731.112
338.157;   56.760;   -4.654;  911.916
338.754;   54.432;   -7.934;  796.589
339.350;   52.243;   -4.414;  722.493
339.946;   54.593;   -4.664;  773.135
340.543;   46.224;   -6.375;  846.136
341.139;   40.293;   -9.815;  720.836
341.735;   39.743;   -4.526;  772.593
342.332;   37.228;   -4.895;  691.472
342.928;   38.009;   -4.295;  795.394
343.524;   32.118;   -5.476;  761.684
344.120;   28.405;   -5.856;  738.562
344.716;   31.647;   -2.155;  723.717
345.313;   28.979;   -6.275;  795.342
345.909;   23.742;   -8.815;  627.336
346.505;   26.171;   -5.305;  740.247
347.101;   26.564;   -2.674;  827.864
347.697;   26.330;   -4.344;  785.398
348.293;   21.755;   -9.975;  627.244
348.889;   22.494;   -5.774;  745.914
349.485;   21.599;   -5.004;  688.205
350.081;   21.254;   -4.704;  772.592
350.676;   17.321;   -6.635;  691.606
351.272;   22.123;   -4.504;  809.530
351.868;   20.582;   -3.914;  780.497
352.464;   18.681;   -9.044;  723.932
353.059;   14.241;   -8.314;  646.017
353.655;   18.502;   -7.024;  777.063
354.251;   19.924;   -5.343;  759.845
354.846;   13.877;   -8.604;  740.646
355.442;   11.856;   -6.945;  753.071
356.038;   13.455;   -7.564;  751.708
356.633;   13.676;   -5.814;  728.594
357.229;   10.893;   -7.364;  724.757
357.824;    9.173;   -8.024;  703.600
358.420;    9.157;   -9.384;  679.726
359.015;    9.694;   -5.104;  695.357
359.610;   10.870;   -6.854;  763.920
360.206;    3.911;  -10.185;  603.240
360.801;    7.529;   -7.054;  646.503
361.396;    9.723;   -5.034;  725.975
361.992;    5.155;   -8.284;  668.220
362.587;    1.884;   -8.625;  670.160
363.182;    4.504;   -7.674;  689.631
363.777;    5.111;   -5.164;  738.242
364.372;    4.355;   -8.604;  737.314
364.967;    0.466;   -9.055;  680.744
365.563;    5.704;   -6.114;  815.567
366.158;    2.776;   -5.814;  685.161
366.753;    2.984;   -7.854;  649.263
367.348;    0.428;   -7.804;  746.056
367.942;    0.949;   -7.954;  697.298
368.537;   -0.049;   -4.984;  754.245
369.132;    0.237;   -8.564;  703.428
369.727;   -4.258;   -8.855;  638.079
370.322;   -2.425;   -6.245;  580.186
370.917;   -2.600;   -6.425;  710.646
371.511;    0.201;   -6.294;  861.834
372.106;   -3.130;   -7.685;  776.964
372.701;   -5.643;   -7.335;  585.988
373.296;   -0.835;   -4.564;  863.135
373.890;   -6.520;  -10.235;  647.840
374.485;   -8.470;   -7.885;  691.199
375.079;   -4.223;   -7.324;  738.685
375.674;   -2.579;   -3.494;  812.970
376.268;   -6.993;   -8.525;  691.759
376.863;  -13.265;  -10.086;  580.327
377.457;   -6.067;   -7.025;  662.490
378.052;   -7.672;   -3.585;  764.884
378.646;   -9.660;   -7.595;  741.167
379.240;  -10.226;   -8.335;  721.176
379.835;   -8.184;   -5.785;  636.978
380.429;  -10.695;   -4.335;  562.557
381.023;  -10.300;   -6.805;  779.205
381.617;  -13.447;   -9.195;  680.106
382.212;   -9.622;   -6.905;  685.303
382.806;   -8.836;   -3.745;  760.690
383.400;  -13.099;   -7.745;  672.281
383.994;  -13.752;   -9.765;  664.870
384.588;   -9.459;   -6.564;  697.701
385.182;   -8.384;   -5.344;  726.624
385.776;  -10.655;   -8.514;  706.875
386.370;  -14.070;   -9.555;  681.968
386.964;  -12.203;   -8.715;  684.155
387.558;  -10.582;   -6.174;  598.360
388.152;  -13.963;   -8.725;  681.959
388.745;  -13.096;   -7.965;  814.707
389.339;   -9.988;   -5.924;  747.642
389.933;   -9.599;   -5.524;  695.370
390.527;  -11.311;   -7.114;  859.029
391.120;  -17.373;  -10.725;  595.318
391.714;  -13.938;   -8.035;  711.633
392.308;  -10.577;   -3.574;  780.253
392.901;  -15.122;   -7.245;  642.460
393.495;  -16.611;   -9.285;  595.414
394.089;  -14.144;   -5.895;  760.452
394.682;  -14.892;   -4.295;  697.188
395.275;  -15.536;   -9.875;  719.927
395.869;  -16.552;   -8.485;  667.314
396.462;  -14.966;   -7.455;  616.609
397.056;  -11.252;   -5.424;  776.621
397.649;  -16.440;   -6.605;  731.575
398.242;  -13.724;   -8.224;  712.645
398.836;  -12.667;   -7.474;  766.408
399.429;  -14.177;   -7.094;  631.041
400.022;  -16.801;   -9.475;  665.902
400.615;  -15.316;   -7.145;  805.609
401.208;  -12.764;   -7.174;  691.451
401.802;  -14.969;   -5.515;  699.329
402.395;  -15.873;   -9.875;  683.502
402.988;  -17.511;   -8.845;  696.627
403.581;  -13.720;   -8.874;  646.878
404.174;  -11.691;   -5.324;  686.568
404.767;  -14.601;   -9.575;  638.583
405.360;  -17.755;  -10.965;  621.445
405.953;  -11.467;   -8.764;  759.034
406.545;  -11.365;   -7.514;  725.342
407.138;  -14.987;  -10.025;  618.350
407.731;  -15.144;  -10.034;  613.303
408.324;   -9.678;   -9.374;  660.554
408.917;  -11.436;   -6.534;  681.864
409.509;  -13.228;   -8.004;  740.396
410.102;  -15.660;   -9.875;  643.948
410.695;   -8.300;   -8.604;  665.758
411.287;   -9.566;   -6.794;  599.821
411.880;  -11.622;   -9.334;  585.421
412.472;  -14.568;  -10.254;  613.092
413.065;  -11.048;   -6.714;  629.408
413.657;   -8.954;   -7.234;  576.678
414.250;   -9.386;  -10.544;  646.681
414.842;  -10.969;   -9.744;  676.353
415.434;   -8.845;   -6.994;  570.463
416.027;   -4.861;   -5.893;  652.196
416.619;   -7.169;   -7.264;  713.400
417.211;   -7.862;  -10.374;  599.352
417.804;   -4.315;   -7.993;  628.499
418.396;   -7.742;   -7.234;  607.643
418.988;   -5.155;   -9.443;  659.238
419.580;   -9.167;  -10.724;  568.276
420.172;   -6.213;  -10.323;  536.196
420.764;   -2.734;   -8.793;  672.482
421.356;   -4.130;  -11.143;  636.898
421.948;   -4.600;   -8.293;  677.661
422.540;   -0.214;   -7.893;  680.027
423.132;   -0.273;   -7.082;  600.641
423.724;   -3.240;   -8.653;  561.267
424.316;   -2.524;  -10.213;  621.345
424.908;    1.645;   -9.762;  591.517
425.500;    2.376;   -5.572;  647.978
426.092;    2.323;   -8.422;  648.268
426.683;    1.198;   -9.283;  684.836
427.275;    5.253;   -7.852;  641.471
427.867;    6.481;   -5.272;  668.948
428.458;    6.689;   -7.682;  732.344
429.050;    4.674;  -10.612;  680.749
429.642;    7.706;   -9.882;  743.124
430.233;    8.594;   -6.962;  569.356
430.825;    8.290;   -6.842;  724.809
431.416;    6.085;   -9.672;  698.241
432.008;   10.120;   -6.552;  651.723
432.599;   11.454;   -6.891;  656.073
433.190;    7.813;  -10.912;  637.670
433.782;    7.357;  -11.172;  590.395
434.373;   14.704;   -6.061;  884.765
434.964;   13.525;   -8.251;  602.920
435.556;   10.364;   -9.722;  634.537
436.147;   13.671;   -9.082;  758.490
436.738;   14.174;   -8.041;  701.099
437.329;   18.934;   -7.341;  721.723
437.920;   11.848;   -8.162;  666.688
438.511;   11.168;  -11.802;  564.526
439.103;   18.391;  -10.191;  623.998
439.694;   20.569;   -7.601;  681.583
440.285;   21.354;   -8.541;  764.432
440.876;   18.962;   -9.751;  845.738
441.466;   18.080;   -9.401;  575.162
442.057;   23.721;   -7.760;  665.814
442.648;   22.332;   -9.971;  746.255
443.239;   20.418;  -11.001;  620.477
443.830;   26.240;   -7.990;  704.958
444.421;   28.574;   -7.910;  655.474
445.011;   23.919;   -8.131;  693.619
445.602;   23.848;   -7.111;  743.126
446.193;   25.414;  -10.920;  488.117
446.783;   29.999;   -6.500;  640.397
447.374;   25.554;   -8.671;  692.759
447.964;   26.151;  -10.781;  713.770
448.555;   34.396;   -9.650;  822.742
449.145;   31.580;   -8.660;  662.853
449.736;   31.850;   -8.990;  803.179
450.326;   31.539;   -9.500;  713.626
450.917;   36.533;   -8.680;  675.324
451.507;   35.319;   -7.520;  600.661
452.097;   36.443;   -8.590;  746.267
452.688;   37.092;  -11.340;  742.160
453.278;   37.321;  -10.100;  566.840
453.868;   41.919;   -6.019;  793.550
454.458;   39.534;   -9.440;  651.141
455.048;   39.631;  -10.560;  711.783
455.639;   41.099;  -11.799;  567.096
456.229;   45.234;   -6.899;  710.694
456.819;   46.925;   -7.389;  751.158
457.409;   46.479;  -11.119;  773.993
457.999;   49.798;   -9.289;  737.505
458.589;   49.412;   -6.139;  686.606
459.179;   49.153;   -8.729;  717.658
459.769;   46.975;   -9.789;  627.099
460.358;   52.671;  -10.259;  797.262
460.948;   52.803;   -7.299;  689.503
461.538;   53.404;  -10.289;  660.677
462.128;   51.525;  -11.269;  664.934
462.717;   58.282;   -9.368;  710.326
463.307;   61.278;   -7.908;  705.846
463.897;   57.071;   -9.599;  656.942
464.486;   55.475;   -9.769;  837.128
465.076;   61.138;   -8.048;  733.776
465.666;   64.456;   -9.358;  652.900
466.255;   61.515;   -7.919;  785.651
466.845;   60.795;  -11.689;  666.749
467.434;   64.499;   -7.818;  725.873
468.023;   65.261;   -7.678;  658.357
468.613;   62.118;  -10.939;  713.946
469.202;   66.838;  -10.118;  646.507
469.791;   70.876;   -9.108;  737.811
470.381;   72.929;   -6.058;  742.813
470.970;   72.924;  -10.428;  711.099
471.559;   72.370;  -10.268;  733.291
472.148;   76.068;   -8.448;  675.737
472.738;   78.075;   -6.917;  765.466
473.327;   77.582;  -11.978;  637.529
473.916;   77.405;  -11.888;  737.446
474.505;   81.959;   -9.437;  751.703
475.094;   84.892;   -6.747;  806.570
475.683;   83.529;   -9.367;  797.699
476.272;   84.338;  -12.637;  730.632
476.861;   88.276;  -10.027;  706.754
477.449;   94.683;   -8.716;  728.487
478.038;   87.704;   -9.577;  692.513
478.627;   88.930;   -9.718;  714.852
479.216;   96.319;   -8.947;  769.441
479.805;   98.967;   -6.256;  783.375
480.393;   98.875;   -7.937; 1008.945
480.982;   97.201;   -7.717;  874.501
481.571;  103.572;   -9.266;  858.333
482.159;  104.671;   -7.636;  705.386
482.748;  104.069;   -9.667;  821.385
483.336;  108.029;  -10.376;  858.209
483.925;  110.078;   -7.147;  774.373
484.513;  115.906;   -7.996;  758.962
485.102;  112.543;  -10.027;  810.965
485.690;  121.277;  -10.446; 1011.050
486.278;  123.319;   -8.446;  979.329
486.867;  124.074;   -6.356;  809.662
487.455;  124.909;   -9.136;  898.229
488.043;  127.067;  -10.646;  748.361
488.631;  135.960;   -7.456; 1005.079
489.220;  139.301;   -6.636;  908.626
489.808;  138.887;  -11.036;  741.415
490.396;  146.890;  -10.246;  914.645
490.984;  152.392;   -8.556;  830.161
491.572;  162.162;   -5.886;  940.315
492.160;  167.102;   -9.486;  919.081
492.748;  178.072;  -10.976;  884.341
493.336;  201.022;   -8.776; 1019.693
493.924;  226.662;   -5.465;  958.077
494.512;  252.364;   -9.986; 1066.638
495.100;  288.672;  -10.636; 1103.280
495.687;  342.011;  -10.885; 1206.373
496.275;  403.629;   -8.126; 1150.796
496.863;  472.927;  -10.586; 1281.171
497.451;  573.505;  -11.926; 1386.805
498.038;  701.044;  -10.885; 1556.729
498.626;  803.207;   -6.315; 1741.407
499.214;  941.972;   -7.326; 2016.609
499.801; 1140.103;  -11.906; 2220.633
500.389; 1376.503;  -10.466; 2312.494
500.976; 1686.396;   -5.236; 2744.849
501.564; 2099.979;   -8.936; 3148.565
502.151; 2471.731;  -13.176; 3515.999
502.738; 2926.241;  -10.646; 3971.274
503.326; 3303.711;   -9.525; 4403.796
503.913; 3677.265;  -10.856; 5161.749
504.500; 4032.846;  -11.586; 5986.420
505.088; 4442.100;  -10.336; 6381.201
505.675; 4947.687;   -6.355; 6925.547
506.262; 5643.617;   -9.046; 7619.060
506.849; 6312.565;  -10.416; 8733.969
507.436; 6765.731;  -10.305; 9790.121
508.023; 7348.081;   -5.496; 9985.472
508.610; 7583.152;   -7.856;10434.618
509.197; 8181.128;  -10.097;11198.435
509.784; 9533.772;  -10.886;12391.194
510.371;10489.696;   -9.315;13603.713
510.958;11174.403;   -9.936;14426.586
511.545;12001.775;   -9.326;15243.775
512.132;12923.820;  -10.075;15945.876
512.719;13582.359;   -7.796;16340.369
513.305;14443.761;  -10.606;18011.766
513.892;15265.690;  -11.486;19754.971
514.479;16588.508;   -9.126;20967.805
515.066;17846.494;   -6.026;22299.793
515.652;18952.617;   -8.466;22908.660
516.239;20248.854;  -10.886;23798.875
516.825;21399.955;  -11.496;25567.275
517.412;22552.033;   -5.796;28154.959
517.998;23089.781;  -10.506;28344.111
518.585;22955.791;  -10.076;27134.219
519.171;23420.059;   -8.315;27268.576
519.758;25071.063;   -8.596;28964.129
520.344;26741.404;   -8.466;30664.494
520.930;26644.297;  -11.006;32550.605
521.516;28303.852;  -10.495;35422.895
522.103;30621.514;   -5.526;38280.004
522.689;31214.291;   -8.746;37835.117
523.275;30529.350;  -11.376;37288.613
523.861;31452.695;  -11.156;37281.395
524.447;32750.443;   -8.135;37846.949
525.033;32589.148;   -7.896;38321.949
525.619;32876.281;  -12.476;38579.285
526.205;34380.453;   -9.516;40622.875
526.791;36375.000;   -6.926;42258.836
527.377;36450.172;   -8.346;42966.902
527.963;38205.184;   -8.717;42018.949
528.549;36652.246;  -11.016;42476.828
529.135;35441.469;   -8.536;41854.852
529.721;35080.309;   -9.666;41237.711
530.306;34540.957;  -10.066;41259.445
530.892;34326.520;  -11.356;41506.047
531.478;35587.238;   -6.596;43559.613
532.063;38283.102;   -8.836;47695.563
532.649;38315.336;  -10.047;50808.324
533.235;39339.863;   -9.746;51787.500
533.820;40500.320;   -6.566;52145.035
534.406;41874.137;  -10.817;51133.488
534.991;41631.391;   -9.416;49996.805
535.576;40235.594;   -9.036;48882.852
536.162;40641.914;   -6.156;46942.285
536.747;41859.074;  -11.607;45711.746
537.333;45618.977;  -11.787;48510.180
537.918;48069.492;  -12.437;50439.891
538.503;46683.285;   -7.196;50863.711
539.088;43849.645;  -10.556;50906.922
539.673;43844.117;   -8.767;52621.965
540.259;43714.379;  -10.026;52368.094
540.844;40996.938;   -7.416;50879.109
541.429;41995.656;   -9.467;52077.777
542.014;45029.461;   -9.527;52716.695
542.599;44492.520;   -9.946;52363.281
543.184;42286.367;   -7.927;53187.137
543.769;43859.414;   -9.297;54697.605
544.354;43261.762;  -10.127;53913.914
544.938;42071.164;   -9.267;49680.164
545.523;43734.461;   -6.506;47386.277
546.108;45902.543;   -9.787;49151.949
546.693;47913.113;  -11.587;51384.637
547.278;48060.668;  -10.986;51853.254
547.862;45039.648;   -8.206;51173.750
548.447;40678.066;  -10.067;51691.395
549.031;40625.879;   -9.637;52456.703
549.616;45537.461;   -9.926;52714.516
550.201;44450.109;   -6.347;52414.598
550.785;45484.441;   -7.917;52355.059
551.370;44829.941;  -10.867;54589.453
551.954;45113.883;   -9.047;58267.348
552.538;45772.250;   -7.827;59062.176
553.123;44181.035;  -10.287;58115.285
553.707;42535.977;  -12.178;56556.285
554.291;43824.574;   -8.717;56201.668
554.876;45855.828;   -7.457;55335.762
555.460;46208.773;  -10.387;54155.703
556.044;47120.203;   -9.618;53721.484
556.628;45737.672;  -11.567;53731.016
557.212;44404.418;   -8.097;54312.531
557.796;42919.910;  -11.077;53797.773
558.380;42711.289;  -11.108;56145.984
558.964;43190.629;   -9.057;57277.930
559.548;44063.277;   -6.977;56459.641
560.132;42708.395;  -11.457;54434.543
560.716;41677.367;  -11.378;54800.617
561.300;42878.383;   -9.577;57606.945
561.884;43975.027;   -7.127;58972.445
562.467;42547.309;   -7.118;57327.570
563.051;41493.750;  -13.358;54962.434
563.635;42114.488;  -10.178;52594.473
564.219;42856.363;   -7.837;50610.410
564.802;43712.387;  -11.398;49551.180
565.386;43669.977;  -12.788;48370.953
565.969;43127.223;   -9.077;48178.871
566.553;43039.707;   -6.207;49957.305
567.136;43315.035;   -8.568;50369.594
567.720;39340.004;  -11.868;49492.004
568.303;37573.707;   -8.268;50616.352
568.887;37792.848;   -8.698;50727.148
569.470;37895.125;   -6.808;51698.379
570.053;36447.730;  -13.188;52122.078
570.637;34970.191;  -12.037;52536.438
571.220;34681.871;   -8.577;51186.098
571.803;34907.805;   -8.498;51032.762
572.386;37238.609;  -10.498;49609.887
572.969;39637.578;   -9.388;48285.926
573.552;37760.598;   -8.338;47624.285
574.135;36631.605;   -8.518;45498.641
574.718;34151.813;  -13.628;41970.434
575.301;32795.945;  -10.893;41447.137
575.884;31440.076;   -8.158;40923.836
576.467;32630.840;  -10.328;45267.723
577.050;34718.523;  -13.058;48175.543
577.633;35368.461;   -9.458;47729.328
578.216;33652.410;   -8.928;47579.793
578.799;32834.566;   -9.358;47820.996
579.381;32089.730;  -11.388;48115.551
579.964;31413.379;  -11.718;47333.766
580.547;33556.348;   -8.588;46668.969
581.129;34918.254;   -8.859;44466.141
581.712;35601.926;  -10.729;44164.922
582.294;36218.523;  -11.118;46477.855
582.877;35977.344;   -5.218;48244.254
583.459;33407.109;   -8.679;47437.895
584.042;31614.684;  -10.709;46943.219
584.624;32530.846;  -11.669;46792.227
585.206;32018.158;   -8.218;46557.250
585.789;32127.061;  -10.569;45793.773
586.371;34446.129;  -11.859;43836.391
586.953;34401.969;  -10.719;42972.492
587.536;35270.195;   -7.198;42487.211
588.118;34024.988;   -8.720;42086.414
588.700;29533.648;  -10.439;43389.930
589.282;27176.438;   -9.198;43646.039
589.864;27337.584;   -9.199;43438.109
590.446;29804.979;  -11.319;43151.926
591.028;32086.377;  -11.159;42781.867
591.610;32731.416;  -11.779;42839.098
592.192;31140.102;   -7.668;42820.402
592.774;29931.623;  -11.949;40724.277
593.356;28754.674;  -12.129;39874.789
593.937;27824.809;  -10.669;39980.648
594.519;30090.422;   -6.509;42069.633
595.101;32074.111;  -10.849;42976.031
595.683;32129.111;  -11.679;44084.441
596.264;33286.410;   -9.049;43478.797
596.846;32304.221;   -8.849;43803.672
597.427;31980.703;   -9.570;42986.934
598.009;33487.742;  -12.620;42832.219
598.591;33645.406;  -10.039;42580.086
599.172;32678.352;  -10.369;43061.805
599.753;32726.104;   -9.140;41691.469
600.335;34461.648;  -11.430;40692.520
600.916;33028.805;   -9.939;39982.422
601.498;30567.408;   -8.479;40318.617
602.079;29158.047;  -10.920;40670.609
602.660;29485.635;  -11.480;41450.898
603.241;30891.980;  -11.699;41137.738
603.823;29533.494;   -9.579;38868.797
604.404;29577.660;  -10.620;38182.785
604.985;30815.510;  -10.450;38078.047
605.566;30167.453;   -9.129;38056.633
606.147;30318.668;   -7.510;37020.418
606.728;32018.064;  -10.660;37883.359
607.309;30617.443;  -11.740;38748.273
607.890;30001.170;   -9.759;38850.230
608.471;29608.074;   -8.250;37457.918
609.051;28737.734;   -9.240;36066.457
609.632;27854.246;  -12.120;35991.074
610.213;28868.078;   -9.110;37402.641
610.794;29413.820;   -8.030;38383.363
611.374;28945.063;   -8.110;40562.387
611.955;29292.031;  -13.560;38533.727
612.536;30438.514;  -11.400;36951.789
613.116;30544.369;   -8.070;37197.891
613.697;30826.500;  -10.830;38411.125
614.277;29508.693;  -11.641;38673.938
614.858;30337.051;  -13.310;37075.863
615.438;29362.016;   -7.460;35092.906
616.019;26482.355;   -7.601;33666.301
616.599;27128.693;  -12.020;34189.023
617.179;28997.428;  -11.780;36952.047
617.760;29916.271;   -8.570;39582.574
618.340;30878.148;  -11.471;38943.977
618.920;32085.160;  -11.170;37594.156
619.500;32050.256;  -11.071;37866.938
620.080;31333.125;   -7.750;37869.043
620.660;32592.111;  -12.711;36868.617
621.241;33997.277;  -10.211;36352.309
621.821;34024.605;  -10.961;35459.520
622.401;32926.734;   -7.720;35207.414
622.980;32104.316;   -8.981;35980.422
623.560;30795.313;   -9.331;37351.328
624.140;30011.309;   -9.850;34388.582
624.720;24710.635;   -7.451;32368.764
625.300;21198.039;   -9.070;32638.629
625.880;24514.240;  -12.601;34599.035
626.459;28556.928;  -11.751;36831.738
627.039;31641.486;   -9.281;38299.098
627.619;31425.123;   -8.801;38289.574
628.198;29763.641;  -12.071;37220.695
628.778;28911.701;   -9.461;37632.563
629.357;29676.863;   -8.491;38003.012
629.937;29789.541;   -9.721;38402.039
630.516;29292.771;   -9.951;37868.801
631.096;28861.256;  -11.731;35760.410
631.675;32001.988;   -8.572;35225.219
632.254;36943.512;  -11.282;35130.289
632.834;36189.520;  -13.322;35794.570
633.413;34110.199;  -10.301;35788.922
633.992;31022.273;   -8.582;34532.863
634.571;32085.258;   -8.352;33590.113
635.151;34759.441;  -11.912;34943.863
635.730;33046.699;  -10.511;35352.523
636.309;29905.949;   -7.731;35366.605
636.888;27946.541;   -9.952;36165.637
637.467;29033.334;  -11.672;37515.902
638.046;30690.180;   -8.901;39288.695
638.625;33731.488;   -7.912;38279.699
639.204;33312.668;  -10.022;37741.598
639.782;31642.275;  -12.252;38364.551
640.361;27789.607;  -10.041;36740.621
640.940;24990.334;  -11.161;34950.082
641.519;25672.506;   -9.701;34137.398
642.097;28624.787;  -11.271;35654.258
642.676;31287.852;   -8.651;35637.957
643.255;31753.984;   -8.711;36567.074
643.833;30897.574;   -9.581;37809.434
644.412;31078.809;  -13.711;37337.293
644.990;30362.604;  -11.811;37018.531
645.569;30790.783;   -9.411;36518.469
646.147;29636.348;  -10.291;36186.430
646.726;28912.820;  -12.401;36267.688
647.304;29902.244;  -10.411;36647.625
647.882;31935.090;   -9.651;39286.742
648.461;33574.516;   -9.631;39157.703
649.039;31580.285;  -11.881;35412.883
649.617;30918.721;   -9.661;34744.918
650.195;30818.420;   -9.301;35403.098
650.773;29387.188;  -10.511;35053.797
651.352;27110.512;  -11.521;33756.816
651.930;25027.361;  -12.211;31868.773
652.508;23548.908;   -9.171;33121.551
653.086;27474.211;   -9.371;33564.793
653.663;29973.271;  -13.161;34054.668
654.241;29149.332;  -13.031;35693.309
654.819;30950.641;   -9.371;36422.906
655.397;30890.361;  -10.511;38213.484
655.975;30708.975;  -10.371;39507.625
656.553;30229.693;  -10.051;39498.223
657.130;28525.775;  -10.061;40395.480
657.708;28102.172;   -9.561;39242.020
658.286;28062.742;  -11.511;38920.020
658.863;29185.740;  -10.261;40202.898
659.441;32209.072;   -7.531;39677.938
660.018;31548.740;   -9.501;40413.355
660.596;30466.963;  -13.301;39931.414
661.173;32553.199;  -11.211;39604.531
661.750;32697.479;   -9.951;39700.070
662.328;31817.746;   -9.390;39292.809
662.905;30890.232;  -11.330;38235.648
663.482;26163.068;   -9.050;36212.305
664.060;24409.680;   -8.240;35944.945
664.637;27466.430;  -10.050;35170.785
665.214;29371.160;  -11.760;34197.523
665.791;30667.732;  -10.530;34549.520
666.368;29279.563;   -9.690;35118.578
666.945;30251.043;   -9.320;36019.418
667.522;31806.137;  -11.860;36048.438
668.099;31723.998;  -10.770;36243.914
668.676;30571.182;   -6.260;35958.875
669.253;29085.842;   -7.000;37384.730
669.830;29704.229;  -10.190;36779.629
670.407;29341.654;   -9.550;35231.289
670.984;29494.832;   -9.260;35544.270
671.560;29810.586;   -9.280;35466.867
672.137;28921.197;  -11.810;34280.863
672.714;29810.234;  -11.490;34632.863
673.290;30060.258;   -7.740;35135.422
673.867;30480.859;  -10.660;36114.480
674.443;30081.070;  -12.230;36152.859
675.020;28334.695;  -10.450;35327.238
675.596;29729.596;   -9.260;35795.176
676.173;30255.457;  -10.780;35430.355
676.749;30162.371;  -13.690;33549.516
677.326;30328.428;  -11.980;32210.012
677.902;30229.928;   -8.630;32068.871
678.478;29395.574;  -10.730;32583.891
679.054;28975.824;  -10.520;32088.928
679.631;29197.096;  -11.920;30978.848
680.207;30673.693;   -7.490;33160.887
680.783;32176.582;   -9.860;35570.363
681.359;31283.170;  -13.380;36125.184
681.935;30688.021;  -12.480;35240.922
682.511;29667.527;   -7.900;34429.961
683.087;29878.281;   -7.710;34463.680
683.663;29691.924;  -11.480;34648.898
684.239;28335.598;  -14.090;34546.457
684.815;27846.117;   -7.560;35586.375
685.390;28259.891;   -9.910;35821.895
685.966;28712.813;  -11.159;35085.871
686.542;31250.393;  -11.169;34198.230
687.118;33379.590;   -5.959;32847.707
687.693;33430.938;  -10.329;32794.027
688.269;32996.594;  -12.059;33072.367
688.844;30873.369;  -10.909;33141.664
689.420;28466.215;   -8.019;33965.742
689.995;26267.818;   -8.399;34655.523
690.571;25145.186;  -10.949;33576.742
691.146;25741.877;   -9.619;32657.219
691.722;25269.770;   -8.999;32526.979
692.297;25656.787;  -11.589;33014.617
692.872;27647.568;  -11.739;34012.254
693.448;26993.363;  -11.059;34237.434
694.023;26234.139;  -10.139;34142.672
694.598;28214.889;   -9.029;34132.031
695.173;28250.322;  -13.319;34205.250
695.748;27460.893;  -10.169;32882.488
696.323;27287.984;   -8.339;32864.906
696.898;27584.396;   -8.169;33170.004
697.473;27555.250;  -12.309;32432.984
698.048;27103.336;  -10.989;31649.303
698.623;27301.555;   -9.329;30778.141
699.198;29496.906;   -9.849;31140.119
699.773;30216.670;  -12.329;31764.299
700.348;28502.236;  -10.389;31780.816
700.922;28349.324;   -9.269;32046.375
701.497;28894.598;   -9.329;32603.574
702.072;28924.842;  -10.789;34799.871
702.646;27724.336;  -10.839;35793.172
703.221;26044.402;   -9.099;35201.590
703.795;28013.436;  -10.939;34764.527
704.370;28276.914;  -12.859;34307.367
704.944;28897.973;  -11.559;33509.887
705.519;29891.314;   -7.939;31388.584
706.093;31352.209;  -10.499;31340.104
706.668;31322.523;  -11.289;32630.281
707.242;30292.744;  -11.509;32728.779
707.816;28838.959;   -9.639;32947.238
708.390;27316.418;  -11.429;33277.855
708.965;28150.166;  -11.869;33834.336
709.539;28686.535;  -11.689;33709.273
710.113;29078.992;  -10.478;33044.313
710.687;28100.215;  -10.228;31953.992
711.261;26267.176;  -13.698;30505.949
711.835;26241.928;  -13.378;30262.369
712.409;27291.080;   -9.698;31254.447
712.983;29104.250;  -11.898;32754.986
713.557;29739.422;  -15.138;34018.824
714.131;29383.592;  -14.098;34579.625
714.704;28636.684;   -9.958;33890.262
715.278;26513.525;  -10.028;33531.102
715.852;25650.531;  -11.148;33601.660
716.425;26466.688;   -9.068;33515.117
716.999;27069.158;  -10.038;33185.555
717.573;28156.988;   -9.798;33905.996
718.146;29231.400;  -12.378;35199.293
718.720;29021.625;  -11.918;35060.551
719.293;28486.666;   -8.088;34973.230
719.867;31334.387;  -10.888;36394.449
720.440;30698.795;  -11.938;36663.008
721.013;28950.846;  -12.818;35102.426
721.587;27799.100;  -10.298;33985.266
722.160;27042.506;  -10.048;33524.965
722.733;26036.648;  -12.108;32987.043
723.306;26322.781;  -10.818;33066.301
723.880;28543.404;   -8.908;33399.500
724.453;29964.424;   -9.878;33468.297
725.026;28867.932;  -11.188;33816.637
725.599;26580.242;  -11.678;32797.996
726.172;27349.857;   -9.618;33187.434
726.745;28512.395;   -8.258;35136.613
727.318;29965.051;  -12.978;35751.730
727.891;30125.660;  -12.148;35890.430
728.463;29678.604;   -8.968;34822.090
729.036;28877.031;  -10.188;32895.086
729.609;29325.281;  -11.788;31823.225
730.182;26147.906;  -11.788;31445.283
730.754;23635.428;  -10.268;32373.223
731.327;23696.465;   -9.998;33676.820
731.900;24231.074;  -12.228;33417.000
732.472;25678.850;  -13.848;31978.498
733.045;27367.188;   -8.698;30368.777
733.617;27411.115;  -10.607;30574.215
734.190;26743.857;  -11.507;31280.975
734.762;23524.170;  -13.647;31674.412
735.334;22114.281;   -9.767;31247.291
735.907;23109.730;   -9.897;29876.211
736.479;23052.387;  -11.637;29808.488
737.051;22633.602;   -9.567;30233.547
737.623;23645.939;   -8.187;31469.086
738.195;24693.604;  -11.187;31784.225
738.768;26665.891;  -12.337;32120.523
739.340;26387.191;  -12.227;32094.342
739.912;24954.451;  -11.057;31312.680
740.484;23691.750;  -10.207;31946.238
741.056;22965.563;  -10.047;32984.059
741.628;24866.404;  -13.627;33897.715
742.199;27095.182;   -7.177;33213.016
742.771;25352.389;  -10.797;31369.113
743.343;22882.066;  -11.997;31865.473
743.915;21915.488;  -12.867;32388.631
744.487;22165.527;   -7.617;31079.568
745.058;22278.676;   -9.557;30570.107
745.630;22598.617;   -9.877;29970.127
746.201;23251.580;  -14.177;29186.766
746.773;23557.828;   -9.237;28805.723
747.344;23510.736;   -9.847;29591.223
747.916;22420.178;  -11.657;31412.201
748.487;22857.043;  -10.587;32194.898
749.059;24039.793;   -8.707;32533.719
749.630;24724.629;  -10.537;32158.518
750.201;23938.492;  -11.687;30855.395
750.773;22164.199;  -11.647;28622.555
751.344;22086.900;   -7.147;28405.732
751.915;23226.363;   -9.757;28461.551
752.486;22737.920;  -12.427;27842.850
753.057;20527.234;  -12.227;27845.008
753.628;19527.619;  -10.417;27728.107
754.199;20769.305;  -11.767;27381.086
754.770;21681.502;  -11.187;25882.203
755.341;21589.221;  -10.507;25886.184
755.912;21511.150;   -9.387;26050.861
756.483;21021.096;  -10.647;26798.779
757.054;19197.020;  -11.837;27048.238
757.625;17941.568;  -12.716;26294.838
758.195;17790.730;   -9.666;26142.076
758.766;17588.600;   -8.656;26392.234
759.337;18355.412;  -12.856;26334.594
759.907;20130.451;  -13.366;27579.652
760.478;20988.092;   -8.576;28352.770
761.048;20179.486;  -10.526;27325.088
761.619;19359.865;  -11.116;26460.428
762.189;19545.758;  -12.136;26029.826
762.760;20878.820;   -9.456;26430.145
763.330;21832.289;   -7.136;26670.902
763.900;21040.529;  -11.786;26603.021
764.471;18351.404;  -11.546;25542.740
765.041;17032.004;   -8.096;24358.459
765.611;17127.027;   -8.876;23991.297
766.181;17665.588;  -12.196;24470.236
766.751;18674.313;  -11.636;24845.975
767.321;18241.080;  -10.156;24533.633
767.891;16139.874;  -11.766;24916.492
768.461;15671.671;  -14.936;24776.771
769.031;16269.275;  -12.356;24757.988
769.601;17750.750;   -7.526;24181.088
770.171;17594.004;  -10.766;23670.387
770.741;17123.066;  -13.176;22960.045
771.311;17501.631;  -10.616;22917.523
771.880;17721.668;   -9.576;23562.941
772.450;17329.240;  -10.336;24216.500
773.020;17426.600;  -13.516;24140.398
773.589;16771.879;  -13.466;24414.857
774.159;16138.479;   -8.686;23858.717
774.729;15787.761;   -9.476;22942.135
775.298;15280.004;  -13.666;22324.033
775.867;14860.319;  -11.716;21140.313
776.437;14769.788;   -9.906;20838.092
777.006;14511.164;  -12.166;20599.510
777.576;14470.607;  -12.356;20508.809
778.145;14721.595;  -11.646;20732.947
778.714;14580.747;   -8.226;21062.465
779.283;13835.578;   -9.556;20949.664
779.853;13487.201;  -14.116;20508.623
780.422;13992.972;  -11.506;20649.082
780.991;13499.983;   -9.556;21527.520
781.560;12336.832;   -9.095;22632.658
782.129;12185.980;  -12.135;23048.277
782.698;12198.579;  -10.865;23438.555
783.267;11787.579;   -9.335;23267.734
783.836;11795.998;  -11.045;22415.133
784.404;12825.729;  -13.865;20443.152
784.973;13312.782;  -13.095;19699.150
785.542;13242.896;  -11.575;19763.828
786.111;13132.119;   -9.705;20341.408
786.679;12599.320;  -12.105;20207.967
787.248;12344.745;  -12.455;19516.465
787.817;12089.563;  -11.535;18900.363
788.385;11605.367;   -9.765;17879.121
788.954;11013.088;  -14.005;17658.301
789.522;10558.996;  -11.955;17788.879
790.090;11160.027;  -10.135;18118.277
790.659;11490.585;  -10.975;18338.736
791.227;10976.232;  -13.375;18508.615
791.795;11480.067;  -12.375;17898.254
792.364;11778.194;  -10.725;17295.133
792.932;11978.651;   -9.715;16822.051
793.500;12146.773;  -12.675;17040.148
794.068;12424.258;  -13.495;17179.787
794.636;12520.436;  -10.885;16664.246
795.204;12026.952;  -11.045;16524.545
795.772;12090.816;  -13.175;17274.564
796.340;11604.935;  -12.445;17891.002
796.908;11461.111;   -9.735;17648.561
797.476;11324.801;   -9.815;17064.080
798.044;10856.046;  -13.985;16672.777
798.612;10043.798;  -13.115;17023.996
799.180; 9686.706;  -10.185;16561.615
799.747; 9632.764;   -9.055;15962.773
800.315; 9352.522;  -12.385;15296.992
800.883; 8961.653;  -15.035;14801.771
801.450; 8922.044;  -10.365;14534.430
802.018; 8973.646;   -9.855;14173.248
802.585; 9114.269;  -11.905;14029.547
803.153; 9198.354;  -11.585;13836.846
803.720; 9052.658;   -9.095;13567.324
804.287; 8593.537;   -9.135;13360.622
804.855; 8195.539;  -11.604;13681.981
805.422; 8084.480;  -11.794;13536.560
805.989; 8080.329;  -10.734;13355.958
806.556; 8317.198;  -10.444;13747.896
807.124; 8612.317;  -12.764;13987.376
807.691; 8567.271;  -12.964;14038.674
808.258; 8329.222;  -11.134;14120.152
808.825; 7952.724;   -9.854;13860.111
809.392; 8004.055;  -10.504;13268.790
809.959; 7579.117;  -13.054;12680.389
810.526; 7213.189;   -8.294;12427.308
811.093; 7286.739;   -8.394;12030.105
811.659; 7832.947;  -12.304;11653.664
812.226; 8244.583;  -13.944;11637.183
812.793; 7873.971;  -10.484;11611.521
813.360; 7250.966;  -10.144;11885.181
813.926; 6982.237;  -11.684;12770.539
814.493; 6794.412;  -13.644;12677.638
815.060; 6435.395;   -9.724;11974.336
815.626; 6476.182;   -9.854;11594.715
816.193; 6856.359;  -13.254;11579.474
816.759; 6842.224;  -13.204;11666.972
817.325; 6941.693;   -9.434;11325.530
817.892; 7392.991;  -10.134;11105.369
818.458; 7850.858;  -13.474;10843.928
819.024; 7442.885;  -11.854;10714.406
819.591; 7159.735;  -10.244;10469.165
820.157; 6965.007;  -10.704;10235.523
820.723; 6459.157;  -12.324;10847.563
821.289; 6154.874;   -9.444;11040.980
821.855; 6015.723;   -8.374;10357.100
822.421; 5919.226;  -10.234; 9978.918
822.987; 5895.433;  -13.294; 9754.177
823.553; 5631.390;  -10.884;10065.755
824.119; 5490.478;   -8.884;10036.294
824.685; 5567.634;   -6.784;10029.192
825.251; 5647.693;  -12.004;10199.230
825.816; 5627.293;  -11.474; 9820.189
826.382; 5431.415;   -9.174; 9297.248
826.948; 5694.850;   -9.214; 9381.347
827.513; 6044.491;  -10.774; 9450.726
828.079; 5786.046;  -11.924; 9472.444
828.645; 5237.864;  -10.543; 9292.643
829.210; 5227.655;  -10.533; 9065.341
829.776; 5201.410;  -10.753; 9132.620
830.341; 5079.196;  -10.173; 9092.878
830.906; 5292.563;  -10.743; 9078.557
831.472; 5619.310;  -11.113; 8534.535
832.037; 5290.510;  -10.603; 8677.874
832.602; 4700.168;  -13.323; 8628.692
833.167; 4445.404;  -10.823; 8879.031
833.733; 4397.555;  -10.113; 9189.790
834.298; 4522.289;  -13.583; 9052.608
834.863; 4559.861;  -12.703; 8895.087
835.428; 4545.025;  -10.523; 8824.266
835.993; 4435.760;   -6.963; 8845.385
836.558; 4308.970;  -10.763; 8888.563
837.123; 4469.716;   -9.903; 8966.582
837.688; 4695.391;   -9.913; 8617.860
838.253; 4908.307;  -10.283; 8590.699
838.817; 5113.193;  -12.963; 8443.797
839.382; 5020.411;  -14.243; 8799.356
839.947; 4700.913;  -10.733; 8810.595
840.511; 4373.522;   -9.383; 8796.394
841.076; 3975.957;  -12.563; 8347.231
841.641; 4026.883;  -12.953; 8224.330
842.205; 4112.614;   -7.043; 8223.349
842.770; 4253.467;   -8.163; 8622.107
843.334; 4458.524;  -12.503; 8410.386
843.898; 4432.028;  -11.693; 8337.465
844.463; 4452.979;  -10.203; 8506.283
845.027; 4202.612;   -9.533; 8280.962
845.591; 4006.274;  -13.443; 8231.141
846.156; 3953.410;  -13.143; 7969.179
846.720; 3834.323;   -9.433; 7768.278
847.284; 3700.268;  -11.033; 7630.957
847.848; 3563.563;  -10.403; 7472.395
848.412; 3464.270;  -11.553; 7437.394
848.976; 3501.166;   -8.393; 7674.592
849.540; 3453.597;   -8.713; 7836.011
850.104; 3583.338;  -12.463; 7913.669
850.668; 3920.276;  -12.973; 7694.508
851.232; 3995.240;  -10.793; 7756.887
851.796; 3828.413;  -10.662; 7926.545
852.359; 3537.976;  -13.082; 7827.844
852.923; 3382.628;  -12.192; 7641.163
853.487; 3212.051;  -11.912; 7342.501
854.050; 3164.884;  -10.892; 7042.820
854.614; 3283.333;  -13.992; 7151.338
855.177; 3388.721;  -11.732; 7105.077
855.741; 3407.615;   -8.962; 6989.675
856.304; 3298.583;   -9.442; 6596.634
856.868; 3254.016;  -14.192; 6356.272
857.431; 3362.505;  -12.702; 6468.571
857.995; 3480.423;   -9.942; 6373.210
858.558; 3479.503;   -9.112; 6324.448
859.121; 3210.202;  -12.932; 6408.327
859.684; 3100.344;  -13.442; 6347.886
860.247; 3201.049;  -10.632; 6321.264
860.810; 3173.406;  -11.272; 6301.903
861.374; 2907.188;   -9.832; 6607.881
861.937; 2655.291;  -11.762; 6408.200
862.500; 2662.391;   -9.722; 6572.639
863.062; 2853.047;  -10.512; 6387.297
863.625; 3026.446;  -11.232; 6190.836
864.188; 3180.659;  -14.112; 5807.254
864.751; 3236.621;  -11.302; 5682.413
865.314; 3112.567;  -10.112; 5547.492
865.876; 2913.114;  -12.182; 5500.150
866.439; 2919.781;  -10.722; 5415.909
867.002; 2855.163;   -9.252; 5501.567
867.564; 2631.516;   -9.572; 5413.946
868.127; 2408.215;  -13.142; 5160.325
868.689; 2310.024;  -12.902; 5133.183
869.252; 2203.406;   -9.732; 5252.382
869.814; 2107.618;   -9.432; 5297.141
870.377; 2123.265;  -11.552; 5390.919
870.939; 2197.154;   -9.052; 5599.898
871.501; 2257.519;  -10.982; 5248.336
872.063; 2257.778;  -12.292; 4854.235
872.626; 2224.909;  -14.912; 4817.074
873.188; 2261.606;  -13.112; 4987.732
873.750; 2225.939;  -13.442; 4868.651
874.312; 2136.396;   -9.402; 4779.330
874.874; 2039.651;  -11.062; 4866.348
875.436; 1946.076;  -13.931; 4718.887
875.998; 1932.849;   -9.561; 4660.005
876.560; 1948.641;  -11.321; 4462.964
877.122; 1890.333;  -12.221; 4145.042
877.683; 1805.298;  -12.191; 4056.481
878.245; 1741.276;  -12.101; 3950.740
878.807; 1780.512;   -8.971; 4058.958
879.369; 1799.551;  -12.071; 3954.677
879.930; 1703.549;  -14.621; 3941.495
880.492; 1645.844;  -10.311; 4067.014
881.053; 1596.746;  -10.901; 3859.633
881.615; 1481.602;  -14.411; 3776.071
882.176; 1396.035;  -13.761; 3734.750
882.738; 1352.704;   -9.181; 3678.489
883.299; 1329.212;  -11.791; 3405.407
883.860; 1336.812;  -13.121; 3351.106
884.422; 1336.270;  -11.211; 3394.044
884.983; 1286.798;  -10.091; 3166.443
885.544; 1202.928;   -8.461; 3189.802
886.105; 1125.871;  -12.361; 3160.360
886.666; 1060.130;  -14.141; 3093.059
887.227; 1004.711;  -11.361; 2941.957
887.788;  940.903;  -11.401; 2974.836
888.349;  880.532;  -13.791; 2721.214
888.910;  881.526;  -13.191; 2696.493
889.471;  889.455;   -9.881; 2560.172
890.032;  868.546;   -9.881; 2558.190
890.593;  846.875;  -10.371; 2567.669
891.153;  820.892;  -13.301; 2460.307
891.714;  769.192;  -11.431; 2372.046
892.275;  725.162;  -11.291; 2309.505
892.835;  678.803;  -11.471; 2382.543
893.396;  623.055;  -11.541; 2295.502
893.956;  564.244;  -11.181; 2162.420
894.517;  529.043;  -11.741; 2125.439
895.077;  525.724;  -11.671; 2086.978
895.638;  527.075;  -11.311; 2126.316
896.198;  497.247;   -9.831; 1838.275
896.758;  455.174;   -8.421; 1892.813
897.319;  424.209;  -12.351; 1792.232
897.879;  407.456;  -13.511; 1762.751
898.439;  380.150;  -12.001; 1661.149
898.999;  356.773;  -10.180; 1781.468
899.559;  347.079;  -12.030; 1703.347
900.119;  342.049;  -15.710; 1537.525
900.679;  337.904;   -8.900; 1638.384
901.239;  323.427;   -8.340; 1527.902
901.799;  313.320;  -13.910; 1456.441
902.359;  307.502;  -13.460; 1357.140
902.919;  299.934;  -11.490; 1331.118
903.479;  287.301;  -12.110; 1317.257
904.038;  265.740;  -11.720; 1262.595
904.598;  251.012;  -13.610; 1152.034
905.158;  246.665;  -11.040; 1240.893
905.717;  239.664;  -10.900; 1233.691
906.277;  226.305;  -15.080; 1217.330
906.836;  216.918;  -13.380; 1222.408
907.396;  207.686;  -10.780; 1193.047
907.955;  201.171;   -8.500; 1182.526
908.515;  195.670;  -12.760; 1099.364
909.074;  189.372;  -11.900; 1092.863
909.633;  183.498;   -8.950; 1069.121
910.192;  179.154;   -8.770; 1196.460
910.752;  173.941;  -12.390; 1029.960
911.311;  169.140;  -13.680; 1009.780
911.870;  167.468;  -12.370;  971.460
912.429;  168.910;  -10.900; 1094.080
912.988;  166.762;  -11.690; 1081.060
913.547;  161.674;  -13.240;  940.380
914.106;  156.890;  -11.990;  999.420
914.665;  153.711;   -9.990;  984.020
915.224;  153.304;  -12.880; 1035.760
915.782;  153.425;  -12.350;  922.560
916.341;  153.982;   -9.110; 1049.840
916.900;  149.199;   -9.270;  925.260
917.458;  147.169;  -13.240;  884.220
918.017;  146.435;  -13.550;  942.600
918.576;  146.429;  -12.320;  904.440
919.134;  144.950;  -11.490;  837.980
919.693;  142.285;  -13.670;  893.060
920.251;  140.653;  -15.470;  876.500
920.809;  139.376;  -11.290;  839.580
921.368;  139.453;  -10.210;  885.360
921.926;  137.592;  -12.140;  842.940
922.484;  136.781;  -13.080;  903.360
923.042;  135.980;  -11.720;  880.340
923.601;  139.916;   -7.480;  998.680
924.159;  136.755;  -11.570;  935.560
924.717;  133.958;  -13.840;  841.080
925.275;  134.481;  -10.640;  903.240
925.833;  134.189;  -11.540;  779.320
926.391;  135.261;  -12.960;  938.380
926.949;  132.764;  -14.130;  857.680
927.506;  134.001;  -11.750;  903.500
928.064;  133.300;  -10.250;  877.580
928.622;  132.274;  -13.030;  880.100
929.180;  131.752;  -13.400;  814.180
929.737;  135.023;  -10.700;  808.540
930.295;  137.662;  -10.070;  928.480
930.853;  139.087;  -11.960;  849.100
931.410;  139.380;  -13.120;  821.120
931.968;  139.143;  -10.770;  940.660
932.525;  139.329;  -10.680;  909.380
933.082;  139.309;  -13.130;  811.440
933.640;  139.457;  -13.210;  925.900
934.197;  138.368;  -11.060;  886.360
934.754;  140.424;   -9.580;  897.780
935.312;  142.360;  -14.000;  863.340
935.869;  147.175;  -10.710; 1012.980
936.426;  148.239;   -9.860;  872.800
936.983;  149.331;   -9.710;  889.020
937.540;  147.838;  -13.990;  838.280
938.097;  145.947;  -14.040;  940.120
938.654;  146.136;  -10.310;  898.860
939.211;  149.546;  -10.560;  952.480
939.768;  153.135;  -13.900;  915.420
940.324;  156.136;  -14.760;  904.200
940.881;  158.533;  -10.370;  878.500
941.438;  158.286;   -8.260; 1021.200
941.995;  153.882;  -12.540;  992.560
942.551;  151.199;  -14.670;  875.620
943.108;  152.914;  -10.450;  937.920
943.664;  155.368;  -10.750;  869.340
944.221;  158.946;  -11.550; 1088.140
944.777;  156.891;  -14.770;  869.680
945.334;  158.286;  -12.820;  884.840
945.890;  159.971;  -10.130;  946.480
946.446;  158.946;  -13.470;  947.020
947.003;  159.728;  -12.120;  964.940
947.559;  163.678;   -9.980; 1063.040
948.115;  163.160;   -9.080; 1026.540
948.671;  161.516;  -10.830;  967.300
949.227;  158.226;  -12.440;  859.560
949.783;  156.576;  -12.910;  858.900
950.339;  158.061;  -10.270;  991.000
950.895;  159.172;  -13.630; 1023.840
951.451;  157.985;  -15.100;  925.280
952.007;  158.533;  -11.330;  998.540
952.563;  159.269;  -10.580;  937.780
953.118;  157.674;  -13.440;  904.940
953.674;  157.322;  -12.710;  935.780
954.230;  157.609;  -10.350;  949.640
954.785;  154.071;   -9.190;  936.640
955.341;  152.191;  -11.200;  998.160
955.897;  150.181;  -16.560;  834.660
956.452;  151.978;  -12.570;  953.840
957.008;  150.994;   -7.970; 1083.640
957.563;  148.661;  -11.940; 1009.540
958.118;  143.576;  -13.450;  877.700
958.674;  144.472;  -12.030;  946.780
959.229;  146.585;   -9.410; 1013.980
959.784;  143.858;  -12.000;  832.400
960.339;  143.115;  -14.780; 1001.280
960.894;  139.745;   -9.860;  963.760
961.449;  135.497;   -9.970;  859.960
962.004;  135.739;  -10.900; 1212.840
962.559;  129.962;  -13.150;  860.140
963.114;  128.267;  -13.740;  742.480
963.669;  128.088;   -9.820;  915.500
964.224;  126.397;  -13.890;  874.340
964.779;  124.938;  -12.600;  828.420
965.334;  126.662;  -10.950; 1017.860
965.888;  126.518;  -11.170;  875.360
966.443;  128.835;  -12.540;  972.380
966.998;  127.528;  -15.780;  819.460
967.552;  126.764;   -9.760;  908.380
968.107;  124.083;   -9.060;  868.300
968.661;  124.894;  -11.950;  922.440
969.216;  125.320;  -12.800;  856.280
969.770;  125.811;  -11.210;  917.200
970.324;  127.299;  -11.610;  923.140
970.879;  124.823;  -11.370;  947.180
971.433;  121.531;  -12.540;  952.720
971.987;  115.679;  -11.320;  895.340
972.541;  108.824;  -10.720;  917.100
973.095;  102.007;   -9.680; 1009.460
973.649;   92.824;  -11.440;  809.480
974.203;   85.909;  -11.210;  829.040
974.757;   81.980;  -10.240;  855.220
975.311;   81.097;  -13.720;  872.600
975.865;   82.462;  -13.770;  881.820
976.419;   84.554;  -11.690;  857.400
976.973;   86.528;   -9.510;  849.620
977.526;   89.745;  -12.620;  949.920
978.080;   89.236;  -12.010;  796.780
978.634;   92.122;  -10.170;  921.320
979.187;   90.241;   -9.020;  905.400
979.741;   88.471;   -9.820; 1018.380
980.294;   84.709;  -14.870;  789.160
980.848;   84.335;  -12.380;  717.220
981.401;   86.009;  -10.350;  816.540
981.955;   87.535;  -13.720;  844.300
982.508;   86.726;  -11.490;  746.340
983.061;   89.018;  -10.000;  915.260
983.615;   84.729;  -11.480;  798.800
984.168;   81.953;  -13.220;  770.080
984.721;   81.202;  -13.960;  880.760
985.274;   81.379;  -10.870;  867.500
985.827;   80.586;   -9.790;  834.220
986.380;   78.620;  -13.120;  721.340
986.933;   77.552;  -12.450;  864.800
987.486;   76.640;  -10.210;  861.920
988.039;   75.478;   -8.430;  863.100
988.591;   73.487;  -10.520;  893.260
989.144;   70.836;  -14.860;  737.260
989.697;   70.326;  -13.080;  758.740
990.250;   71.591;  -10.150;  858.100
990.802;   70.679;  -13.430;  755.860
991.355;   70.895;  -12.750;  974.880
991.907;   69.488;  -12.040;  864.320
992.460;   68.080;  -11.330;  753.760
993.012;   66.637;  -13.610;  749.540
993.565;   65.237;  -13.460;  711.360
994.117;   67.579;   -9.360;  950.780
994.669;   63.728;  -11.300;  701.320
995.221;   61.610;  -13.540;  791.920
995.774;   59.833;  -13.430;  787.580
996.326;   59.100;  -12.520;  740.220
996.878;   59.139;  -10.950;  838.420
997.430;   55.847;  -14.300;  699.860
997.982;   54.174;  -13.760;  750.140
998.534;   53.331;  -11.530;  739.060
999.086;   50.704;  -10.310;  738.220
999.638;   49.357;  -12.530;  661.380
1000.190;   48.251;  -11.840;  699.320
1000.741;   48.910;  -10.260;  742.700
1001.293;   49.935;   -8.860;  686.020
1001.845;   48.163;  -13.700;  676.640
1002.396;   47.789;  -12.100;  743.400
1002.948;   48.482;  -12.760;  737.400
1003.500;   47.230;  -10.380;  723.780
1004.051;   47.830;  -11.900;  907.580
1004.603;   45.580;  -12.250;  791.820
1005.154;   42.151;  -13.210;  608.980
1005.705;   42.184;  -10.950;  723.960
1006.257;   41.192;  -13.880;  707.220
1006.808;   40.534;  -12.840;  685.460
1007.359;   40.366;  -10.570;  763.240
1007.910;   40.081;   -9.620;  646.640
1008.461;   38.731;  -13.630;  732.940
1009.013;   37.992;  -17.200;  588.340
1009.564;   39.567;  -10.200;  793.520
1010.115;   36.835;  -12.570;  597.040
1010.665;   36.561;  -15.150;  602.160
1011.216;   36.546;  -14.480;  667.920
1011.767;   36.308;  -11.340;  697.920
1012.318;   36.141;   -9.780;  736.980
1012.869;   35.951;  -12.380;  679.000
1013.419;   34.659;  -15.560;  603.120
1013.970;   34.745;  -11.010;  666.640
1014.521;   34.494;  -11.610;  620.620
1015.071;   34.900;  -13.450;  670.380
1015.622;   33.894;  -13.870;  635.460
1016.172;   34.054;  -11.610;  596.820
1016.723;   33.185;  -12.120;  614.380
1017.273;   33.018;  -13.620;  604.160
1017.823;   33.231;  -14.140;  650.340
1018.374;   32.397;  -12.800;  611.760
1018.924;   33.272;  -12.340;  716.880
1019.474;   33.361;  -11.410;  718.880
1020.024;   30.474;  -14.770;  657.580
1020.574;   32.638;   -9.780;  726.160
1021.124;   32.551;   -8.560;  673.580
1021.674;   30.875;  -15.190;  559.120
1022.224;   31.419;  -13.530;  708.940
1022.774;   31.724;  -13.280;  668.820
1023.324;   32.434;  -10.690;  753.520
1023.874;   33.326;  -10.240;  875.760
1024.423;   29.761;  -12.540;  613.700
1024.973;   30.316;  -10.010;  610.760
1025.523;   29.524;  -10.550;  620.960
1026.072;   28.537;  -13.560;  606.420
1026.622;   29.220;  -15.120;  675.740
1027.172;   30.398;  -11.260;  715.660
1027.721;   29.576;  -11.410;  601.220
1028.270;   29.381;  -13.530;  663.400
1028.820;   28.308;  -13.680;  638.080
1029.369;   29.009;  -13.520;  612.700
1029.918;   29.308;  -10.980;  649.840
1030.468;   27.735;  -13.530;  564.780
1031.017;   28.351;  -13.170;  634.800
1031.566;   27.873;  -12.200;  608.900
1032.115;   27.678;   -9.960;  694.500
1032.664;   26.493;  -13.210;  596.480
1033.213;   27.863;  -12.500;  735.420
1033.762;   26.880;  -11.910;  635.620
1034.311;   27.424;   -9.640;  677.220
1034.860;   27.064;  -13.310;  691.000
1035.408;   26.882;  -11.830;  722.720
1035.957;   27.050;  -12.000;  719.540
1036.506;   25.874;  -11.690;  530.800
1037.055;   26.869;  -10.990;  844.320
1037.603;   25.179;  -15.120;  664.000
1038.152;   24.431;  -12.450;  534.760
1038.700;   25.341;  -10.560;  585.740
1039.249;   24.449;  -11.080;  681.220
1039.797;   25.378;  -12.540;  633.360
1040.345;   25.070;  -11.920;  705.420
1040.894;   24.683;  -11.410;  625.300
1041.442;   24.410;  -14.320;  632.200
1041.990;   22.878;  -16.240;  559.160
1042.538;   22.822;  -11.680;  536.180
1043.087;   23.389;  -10.760;  570.860
1043.635;   24.710;  -11.850;  670.500
1044.183;   23.448;  -15.480;  586.400
1044.731;   23.523;  -11.770;  576.000
1045.279;   23.361;  -13.090;  674.920
1045.827;   24.453;  -12.440;  892.400
1046.374;   22.056;  -13.840;  515.420
1046.922;   21.406;  -13.220;  590.580
1047.470;   23.471;  -10.230;  691.300
1048.018;   22.827;  -14.590;  647.960
1048.565;   23.363;  -12.050;  708.600
1049.113;   21.604;  -11.650;  557.000
1049.660;   21.826;  -10.510;  629.660
1050.208;   22.188;  -13.310;  675.640
1050.755;   20.331;  -15.900;  606.580
1051.303;   22.463;  -11.430;  686.820
1051.850;   21.152;   -8.480;  635.120
1052.397;   19.106;  -15.010;  473.960
1052.945;   19.705;  -13.960;  617.760
1053.492;   22.013;  -13.150;  741.840
1054.039;   22.523;   -9.630;  720.180
1054.586;   20.738;  -13.680;  557.240
1055.133;   21.464;  -14.570;  693.140
1055.680;   20.841;  -13.820;  646.620
1056.227;   20.243;  -11.730;  542.780
1056.774;   21.597;  -12.480;  794.980
1057.321;   18.536;  -13.930;  523.260
1057.868;   19.786;  -11.690;  651.320
1058.415;   19.914;   -9.520;  651.980
1058.961;   19.688;  -13.160;  678.940
1059.508;   19.253;  -12.920;  643.820
1060.055;   19.274;  -11.920;  581.780
1060.601;   19.600;  -11.500;  624.300
1061.148;   19.012;  -14.330;  616.820
1061.694;   17.346;  -16.870;  592.580
1062.241;   19.092;  -10.330;  596.320
1062.787;   18.882;  -10.620;  663.140
1063.334;   20.000;  -10.110;  808.560
1063.880;   18.235;  -13.400;  668.360
1064.426;   19.282;  -10.680;  706.820
1064.972;   17.593;   -9.920;  601.340
1065.518;   16.672;  -10.980;  566.640
1066.065;   17.034;  -14.890;  624.460
1066.611;   16.962;  -12.870;  598.800
1067.157;   17.950;  -12.950;  641.860
1067.703;   17.269;  -13.540;  668.480
1068.249;   16.692;  -13.540;  605.220
1068.794;   17.574;  -12.600;  626.880
1069.340;   16.290;  -10.620;  578.960
1069.886;   17.420;  -12.830;  590.700
1070.432;   15.372;  -14.870;  541.720
1070.977;   15.837;  -11.980;  601.080
1071.523;   17.388;   -8.200;  573.060
1072.068;   16.765;  -12.330;  582.000
1072.614;   15.889;  -16.370;  527.760
1073.160;   16.710;  -11.100;  687.040
1073.705;   15.769;  -10.480;  572.520
1074.250;   15.381;  -14.520;  559.900
1074.796;   15.853;  -11.460;  655.160
1075.341;   16.169;  -11.950;  664.100
1075.886;   16.024;  -11.460;  594.240
1076.431;   15.135;  -13.770;  649.880
1076.976;   15.092;  -12.680;  639.220
1077.521;   15.190;  -13.170;  583.080
1078.067;   13.835;  -10.860;  579.400
1078.612;   14.850;  -13.920;  661.620
1079.156;   13.303;  -13.880;  601.540
1079.701;   15.120;  -13.120;  693.260
1080.246;   14.963;   -9.940;  696.300
1080.791;   14.737;  -14.740;  625.020
1081.336;   13.870;  -13.750;  659.320
1081.880;   14.001;  -13.400;  649.680
1082.425;   13.267;  -12.220;  573.480
1082.970;   15.330;  -11.610;  717.040
1083.514;   13.323;  -13.580;  597.000
1084.059;   13.024;  -12.810;  586.720
1084.603;   13.203;  -12.320;  565.840
1085.147;   13.821;  -13.190;  645.220
1085.692;   13.223;  -12.480;  716.800
1086.236;   12.221;  -13.020;  503.140
1086.780;   15.040;   -9.190;  751.440
1087.325;   13.853;  -12.480;  654.620
1087.869;   12.634;  -12.450;  610.700
1088.413;   14.097;  -12.240;  705.040
1088.957;   12.278;   -9.020;  543.400
1089.501;   13.593;  -10.320;  766.640
1090.045;   12.355;  -12.720;  726.480
1090.589;   10.553;  -13.690;  569.920
1091.133;   11.988;  -10.020;  673.340
1091.676;   12.016;  -12.330;  591.940
1092.220;   11.356;  -14.970;  600.920
1092.764;   12.845;  -12.430;  706.960
1093.307;   11.913;   -9.800;  673.780
1093.851;   10.643;  -14.970;  556.540
1094.395;   11.529;  -15.310;  683.140
1094.938;   10.801;  -10.370;  632.520
1095.482;   10.737;  -11.050;  559.800
1096.025;   12.082;  -11.840;  710.880
1096.568;   11.734;  -12.840;  779.280
1097.112;    9.267;  -14.700;  508.180
1097.655;   11.594;   -8.720;  603.000
1098.198;    9.361;  -13.610;  600.180
1098.741;    9.236;  -13.350;  612.860
1099.285;   11.345;  -11.230;  657.300
1099.828;    9.242;  -11.840;  439.400
1100.371;   10.116;  -10.840;  608.160
1100.914;    9.594;  -14.190;  682.660
1101.457;   10.144;  -11.240;  679.900
1101.999;    9.025;  -11.270;  584.680
1102.542;    9.344;  -11.480;  641.440
1103.085;    9.044;  -11.750;  658.500
1103.628;    9.674;  -11.400;  762.060
1104.170;    9.218;  -10.490;  588.280
1104.713;    8.906;  -10.600;  646.700
1105.256;    8.592;  -14.360;  557.440
1105.798;    7.476;  -13.210;  499.980
1106.341;   10.221;  -10.270;  728.900
1106.883;    8.225;  -12.200;  521.340
1107.425;    8.647;  -13.110;  668.180
1107.968;    7.816;  -12.840;  612.380
1108.510;    8.890;   -6.480;  684.960
1109.052;    7.265;  -13.940;  612.620
1109.594;    7.949;  -13.690;  554.440
1110.136;    8.744;  -11.880;  643.220
1110.679;    7.730;   -9.500;  633.080
1111.221;    7.584;  -14.160;  604.460
1111.763;    7.430;  -13.980;  559.220
1112.304;    6.603;  -13.880;  547.140
1112.846;    8.024;  -12.210;  666.240
1113.388;   10.233;  -11.390;  942.180
1113.930;    7.600;  -14.540;  694.200
1114.472;    6.353;  -12.640;  606.540
1115.013;    6.567;  -11.620;  551.280
1115.555;    6.158;  -13.640;  587.100
1116.097;    6.277;  -15.380;  579.480
1116.638;    7.275;  -12.640;  684.600
1117.180;    7.583;   -9.850;  667.740
1117.721;    6.153;  -13.690;  568.580
1118.262;    7.034;  -12.680;  677.960
1118.804;    7.722;  -12.530;  637.340
1119.345;    5.552;  -11.690;  578.400
1119.886;    7.682;  -13.380;  704.040
1120.427;    5.852;  -14.070;  589.020
1120.969;    5.159;  -13.500;  597.920
1121.510;    4.870;  -11.480;  563.060
1122.051;    5.883;  -12.830;  723.580
1122.592;    4.444;  -14.290;  655.420
1123.133;    4.468;  -12.400;  547.940
1123.673;    6.317;  -10.130;  706.480
1124.214;    5.302;  -12.930;  612.460
1124.755;    5.591;  -14.380;  639.460
1125.296;    4.848;  -14.000;  627.320
1125.836;    5.526;  -10.070;  691.500
1126.377;    4.338;  -12.640;  599.660
1126.918;    4.689;  -12.960;  614.980
1127.458;    4.729;  -13.350;  622.220
1127.999;    6.291;  -10.750;  656.980
1128.539;    5.193;  -12.350;  694.240
1129.079;    4.170;  -14.860;  632.720
1129.620;    4.051;  -13.840;  558.100
1130.160;    4.008;  -12.330;  539.480
1130.700;    4.748;  -14.530;  640.840
1131.240;    4.744;  -12.530;  643.700
1131.781;    3.579;  -14.450;  619.680
1132.321;    4.281;   -9.790;  599.120
1132.861;    3.334;  -14.860;  564.200
1133.401;    2.389;  -14.290;  593.940
1133.941;    3.944;  -11.750;  626.280
1134.481;    3.592;   -9.920;  597.580
1135.020;    3.033;  -12.290;  609.160
1135.560;    3.357;  -11.650;  674.940
1136.100;    2.557;  -16.270;  501.160
1136.640;    2.844;  -10.890;  510.480
1137.179;    3.482;  -14.180;  537.960
1137.719;    3.617;  -16.250;  605.400
1138.258;    3.334;  -14.230;  587.360
1138.798;    4.060;   -9.090;  663.780
1139.337;    1.746;  -15.130;  482.840
1139.877;    2.418;  -13.680;  642.360
1140.416;    4.699;  -11.320;  878.060
1140.955;    2.196;  -10.860;  535.380
1141.494;    2.805;  -12.920;  669.280
1142.034;    2.172;  -13.930;  583.520
1142.573;    2.977;  -11.440;  646.280
1143.112;    2.330;  -12.000;  553.480
1143.651;    1.722;  -13.670;  536.480
1144.190;    2.720;  -12.730;  691.640
1144.729;    2.039;  -14.560;  607.420
1145.267;    2.779;  -11.830;  584.900
1145.806;    2.896;  -12.230;  637.040
1146.345;    0.961;  -14.130;  635.020
1146.884;    1.317;  -11.590;  622.500
1147.422;    1.744;  -12.550;  533.060
1147.961;    3.250;  -11.180;  708.460
1148.500;    2.150;  -11.510;  669.720
1149.038;    2.662;  -11.640;  632.500
1149.577;    2.901;  -10.130;  698.640
1150.115;    0.123;  -13.970;  452.280
1150.653;    1.621;  -14.520;  607.340
1151.192;    0.850;  -12.810;  552.920
1151.730;    2.025;   -9.100;  652.560
1152.268;    0.854;  -12.220;  589.520
1152.806;    0.711;  -14.140;  571.180
1153.344;   -0.246;  -12.350;  577.640
1153.882;    1.090;   -8.980;  600.060
1154.421;   -0.676;  -15.190;  470.620
1154.958;   -0.416;  -15.210;  595.240
1155.496;    1.445;  -12.850;  645.280
1156.034;    0.942;   -9.940;  721.880
1156.572;    1.598;  -13.570;  667.060
1157.110;   -0.954;  -14.590;  473.940
1157.647;    1.095;  -13.030;  676.960
1158.185;   -0.439;  -12.140;  564.320
1158.723;   -1.585;  -14.390;  509.200
1159.260;   -0.205;  -14.090;  701.700
1159.798;    0.624;  -11.920;  658.160
1160.335;   -0.388;  -11.110;  631.820

