
Integration time [ms]:   3.276
Averaging Nr. [scans]: 1000
Smoothing Nr. [pixels]: 0
Data measured with spectrometer [name]: 7414430SP
Wave   ;Sample   ;Dark     ;Reference
[nm]   ;[counts] ;[counts] ;[counts] 

288.544;  150.252;    7.793;  793.890
289.143;  154.719;    7.462;  681.602
289.742;  154.934;    8.602;  828.814
290.341;  140.524;    1.321;  789.841
290.940;  128.673;   -0.709;  730.702
291.538;  129.490;    0.881;  881.108
292.137;  130.212;    0.122;  792.581
292.736;  134.233;   -1.929;  975.101
293.335;  130.812;   -8.229;  735.086
293.934;  131.380;   -5.279;  781.677
294.532;  129.544;   -1.369; 1031.958
295.131;  115.729;   -7.641;  834.394
295.730;  116.097;   -8.420;  809.588
296.328;  114.977;   -5.611;  783.442
296.927;  115.664;   -5.781;  779.652
297.525;  117.168;   -6.361;  781.236
298.124;  107.246;  -11.382;  654.009
298.722;  111.053;   -7.641;  761.933
299.321;  109.514;   -6.811;  708.597
299.919;  107.559;   -6.991;  751.918
300.518;  103.259;  -10.362;  689.338
301.116;  105.893;   -9.581;  691.381
301.715;  105.743;   -4.891;  730.222
302.313;  105.084;   -8.801;  704.943
302.911;  100.300;   -8.522;  733.830
303.509;  104.970;   -6.171;  925.627
304.108;  102.794;   -7.311;  760.383
304.706;  101.997;   -8.321;  801.664
305.304;   96.517;  -10.222;  796.707
305.902;  101.830;   -6.021;  784.484
306.500;   96.689;   -4.971;  728.200
307.098;   96.475;   -7.061;  746.560
307.696;   93.720;   -8.801;  780.432
308.294;   94.462;   -6.411;  731.359
308.892;   96.182;   -2.901;  759.769
309.490;   92.737;   -5.041;  712.161
310.088;   90.955;   -5.002;  788.444
310.686;   95.207;   -2.041;  821.749
311.284;   91.255;   -2.351;  766.040
311.882;   89.041;   -4.422;  731.225
312.480;   85.900;   -4.192;  697.167
313.078;   87.059;   -1.172;  808.331
313.675;   87.838;   -2.601;  691.600
314.273;   83.824;   -1.312;  797.837
314.871;   82.094;   -3.942;  589.829
315.468;   80.100;   -2.802;  652.090
316.066;   82.961;   -0.701;  694.427
316.664;   76.771;   -4.362;  656.351
317.261;   80.181;   -2.872;  910.128
317.859;   75.707;   -2.022;  768.735
318.456;   75.984;   -0.531;  830.096
319.054;   71.604;   -3.912;  787.828
319.651;   71.433;   -4.752;  759.928
320.249;   69.283;   -2.602;  810.188
320.846;   68.082;   -0.821;  714.286
321.443;   64.988;   -4.642;  832.135
322.041;   62.323;   -5.002;  812.315
322.638;   59.913;   -3.982;  701.456
323.235;   60.400;   -3.411;  665.683
323.833;   58.386;   -7.361;  740.354
324.430;   54.161;   -8.611;  615.900
325.027;   53.756;   -4.061;  876.855
325.624;   54.142;   -4.031;  644.532
326.221;   52.258;   -7.481;  689.717
326.818;   50.484;   -5.281;  818.332
327.415;   54.042;   -7.460;  748.828
328.012;   53.282;   -5.510;  690.585
328.609;   51.963;   -7.880;  731.389
329.206;   50.759;   -8.331;  778.621
329.803;   50.115;   -5.121;  737.841
330.400;   52.691;   -4.510;  704.260
330.997;   54.935;   -6.441;  817.147
331.594;   53.439;   -8.831;  788.185
332.191;   58.123;   -7.621;  728.722
332.787;   60.578;   -4.591;  844.463
333.384;   60.033;   -7.412;  763.093
333.981;   57.777;   -8.293;  815.687
334.578;   60.983;   -7.052;  708.378
335.174;   63.720;   -3.102;  731.469
335.771;   64.058;   -5.943;  836.456
336.367;   60.659;   -7.393;  710.631
336.964;   63.943;   -4.063;  793.266
337.561;   61.676;   -3.813;  731.112
338.157;   58.275;   -4.654;  911.916
338.754;   55.536;   -7.934;  796.589
339.350;   53.263;   -4.414;  722.493
339.946;   55.459;   -4.664;  773.135
340.543;   47.449;   -6.375;  846.136
341.139;   42.041;   -9.815;  720.836
341.735;   40.000;   -4.526;  772.593
342.332;   38.685;   -4.895;  691.472
342.928;   39.012;   -4.295;  795.394
343.524;   33.310;   -5.476;  761.684
344.120;   28.948;   -5.856;  738.562
344.716;   32.574;   -2.155;  723.717
345.313;   30.184;   -6.275;  795.342
345.909;   25.607;   -8.815;  627.336
346.505;   26.599;   -5.305;  740.247
347.101;   27.184;   -2.674;  827.864
347.697;   28.012;   -4.344;  785.398
348.293;   21.775;   -9.975;  627.244
348.889;   23.216;   -5.774;  745.914
349.485;   23.395;   -5.004;  688.205
350.081;   22.856;   -4.704;  772.592
350.676;   17.693;   -6.635;  691.606
351.272;   21.648;   -4.504;  809.530
351.868;   22.546;   -3.914;  780.497
352.464;   19.175;   -9.044;  723.932
353.059;   15.282;   -8.314;  646.017
353.655;   18.943;   -7.024;  777.063
354.251;   20.202;   -5.343;  759.845
354.846;   14.772;   -8.604;  740.646
355.442;   12.312;   -6.945;  753.071
356.038;   14.659;   -7.564;  751.708
356.633;   15.042;   -5.814;  728.594
357.229;   12.379;   -7.364;  724.757
357.824;   10.603;   -8.024;  703.600
358.420;    9.601;   -9.384;  679.726
359.015;   10.185;   -5.104;  695.357
359.610;   11.533;   -6.854;  763.920
360.206;    5.207;  -10.185;  603.240
360.801;    8.111;   -7.054;  646.503
361.396;    9.865;   -5.034;  725.975
361.992;    6.618;   -8.284;  668.220
362.587;    3.182;   -8.625;  670.160
363.182;    4.639;   -7.674;  689.631
363.777;    5.877;   -5.164;  738.242
364.372;    5.483;   -8.604;  737.314
364.967;    1.969;   -9.055;  680.744
365.563;    6.265;   -6.114;  815.567
366.158;    3.385;   -5.814;  685.161
366.753;    3.480;   -7.854;  649.263
367.348;    2.076;   -7.804;  746.056
367.942;    1.679;   -7.954;  697.298
368.537;    1.229;   -4.984;  754.245
369.132;    1.885;   -8.564;  703.428
369.727;   -2.019;   -8.855;  638.079
370.322;   -1.684;   -6.245;  580.186
370.917;   -2.655;   -6.425;  710.646
371.511;    1.041;   -6.294;  861.834
372.106;   -1.762;   -7.685;  776.964
372.701;   -4.840;   -7.335;  585.988
373.296;   -0.265;   -4.564;  863.135
373.890;   -4.155;  -10.235;  647.840
374.485;   -7.289;   -7.885;  691.199
375.079;   -3.211;   -7.324;  738.685
375.674;   -2.083;   -3.494;  812.970
376.268;   -6.425;   -8.525;  691.759
376.863;  -12.047;  -10.086;  580.327
377.457;   -5.559;   -7.025;  662.490
378.052;   -7.350;   -3.585;  764.884
378.646;   -8.067;   -7.595;  741.167
379.240;   -9.204;   -8.335;  721.176
379.835;   -8.276;   -5.785;  636.978
380.429;   -9.987;   -4.335;  562.557
381.023;   -9.447;   -6.805;  779.205
381.617;  -11.901;   -9.195;  680.106
382.212;   -9.038;   -6.905;  685.303
382.806;   -7.735;   -3.745;  760.690
383.400;  -11.591;   -7.745;  672.281
383.994;  -14.002;   -9.765;  664.870
384.588;   -8.845;   -6.564;  697.701
385.182;   -7.796;   -5.344;  726.624
385.776;   -9.353;   -8.514;  706.875
386.370;  -12.723;   -9.555;  681.968
386.964;  -11.731;   -8.715;  684.155
387.558;  -10.207;   -6.174;  598.360
388.152;  -12.675;   -8.725;  681.959
388.745;  -11.597;   -7.965;  814.707
389.339;   -9.516;   -5.924;  747.642
389.933;   -9.011;   -5.524;  695.370
390.527;  -10.066;   -7.114;  859.029
391.120;  -16.497;  -10.725;  595.318
391.714;  -13.083;   -8.035;  711.633
392.308;  -10.112;   -3.574;  780.253
392.901;  -13.565;   -7.245;  642.460
393.495;  -15.519;   -9.285;  595.414
394.089;  -13.718;   -5.895;  760.452
394.682;  -14.053;   -4.295;  697.188
395.275;  -15.165;   -9.875;  719.927
395.869;  -15.673;   -8.485;  667.314
396.462;  -14.403;   -7.455;  616.609
397.056;  -10.775;   -5.424;  776.621
397.649;  -15.598;   -6.605;  731.575
398.242;  -12.266;   -8.224;  712.645
398.836;  -11.599;   -7.474;  766.408
399.429;  -13.080;   -7.094;  631.041
400.022;  -16.118;   -9.475;  665.902
400.615;  -14.616;   -7.145;  805.609
401.208;  -11.692;   -7.174;  691.451
401.802;  -15.050;   -5.515;  699.329
402.395;  -15.173;   -9.875;  683.502
402.988;  -17.450;   -8.845;  696.627
403.581;  -13.595;   -8.874;  646.878
404.174;  -11.228;   -5.324;  686.568
404.767;  -13.167;   -9.575;  638.583
405.360;  -16.014;  -10.965;  621.445
405.953;  -10.398;   -8.764;  759.034
406.545;   -9.857;   -7.514;  725.342
407.138;  -14.732;  -10.025;  618.350
407.731;  -13.394;  -10.034;  613.303
408.324;   -9.374;   -9.374;  660.554
408.917;  -10.287;   -6.534;  681.864
409.509;  -12.289;   -8.004;  740.396
410.102;  -14.459;   -9.875;  643.948
410.695;   -8.212;   -8.604;  665.758
411.287;   -9.407;   -6.794;  599.821
411.880;   -9.931;   -9.334;  585.421
412.472;  -13.583;  -10.254;  613.092
413.065;  -10.618;   -6.714;  629.408
413.657;   -9.061;   -7.234;  576.678
414.250;   -7.700;  -10.544;  646.681
414.842;  -10.227;   -9.744;  676.353
415.434;   -8.244;   -6.994;  570.463
416.027;   -4.217;   -5.893;  652.196
416.619;   -5.574;   -7.264;  713.400
417.211;   -6.374;  -10.374;  599.352
417.804;   -2.821;   -7.993;  628.499
418.396;   -6.629;   -7.234;  607.643
418.988;   -5.449;   -9.443;  659.238
419.580;   -8.361;  -10.724;  568.276
420.172;   -5.750;  -10.323;  536.196
420.764;   -2.133;   -8.793;  672.482
421.356;   -2.432;  -11.143;  636.898
421.948;   -4.010;   -8.293;  677.661
422.540;    1.332;   -7.893;  680.027
423.132;    0.698;   -7.082;  600.641
423.724;   -2.515;   -8.653;  561.267
424.316;   -0.261;  -10.213;  621.345
424.908;    3.308;   -9.762;  591.517
425.500;    3.442;   -5.572;  647.978
426.092;    4.164;   -8.422;  648.268
426.683;    2.867;   -9.283;  684.836
427.275;    5.801;   -7.852;  641.471
427.867;    7.143;   -5.272;  668.948
428.458;    8.038;   -7.682;  732.344
429.050;    5.931;  -10.612;  680.749
429.642;    8.375;   -9.882;  743.124
430.233;    8.903;   -6.962;  569.356
430.825;    9.747;   -6.842;  724.809
431.416;    7.934;   -9.672;  698.241
432.008;   11.088;   -6.552;  651.723
432.599;   12.341;   -6.891;  656.073
433.190;    9.159;  -10.912;  637.670
433.782;    7.588;  -11.172;  590.395
434.373;   15.158;   -6.061;  884.765
434.964;   14.427;   -8.251;  602.920
435.556;   12.227;   -9.722;  634.537
436.147;   15.065;   -9.082;  758.490
436.738;   14.927;   -8.041;  701.099
437.329;   19.183;   -7.341;  721.723
437.920;   12.805;   -8.162;  666.688
438.511;   12.820;  -11.802;  564.526
439.103;   19.124;  -10.191;  623.998
439.694;   20.974;   -7.601;  681.583
440.285;   22.035;   -8.541;  764.432
440.876;   20.384;   -9.751;  845.738
441.466;   19.743;   -9.401;  575.162
442.057;   25.283;   -7.760;  665.814
442.648;   23.884;   -9.971;  746.255
443.239;   22.087;  -11.001;  620.477
443.830;   27.153;   -7.990;  704.958
444.421;   28.469;   -7.910;  655.474
445.011;   24.830;   -8.131;  693.619
445.602;   24.294;   -7.111;  743.126
446.193;   26.777;  -10.920;  488.117
446.783;   31.842;   -6.500;  640.397
447.374;   27.085;   -8.671;  692.759
447.964;   26.954;  -10.781;  713.770
448.555;   35.844;   -9.650;  822.742
449.145;   31.892;   -8.660;  662.853
449.736;   33.606;   -8.990;  803.179
450.326;   32.999;   -9.500;  713.626
450.917;   37.108;   -8.680;  675.324
451.507;   36.595;   -7.520;  600.661
452.097;   37.239;   -8.590;  746.267
452.688;   38.253;  -11.340;  742.160
453.278;   38.238;  -10.100;  566.840
453.868;   43.073;   -6.019;  793.550
454.458;   40.329;   -9.440;  651.141
455.048;   40.882;  -10.560;  711.783
455.639;   41.820;  -11.799;  567.096
456.229;   45.050;   -6.899;  710.694
456.819;   47.950;   -7.389;  751.158
457.409;   48.057;  -11.119;  773.993
457.999;   50.519;   -9.289;  737.505
458.589;   50.517;   -6.139;  686.606
459.179;   50.437;   -8.729;  717.658
459.769;   48.598;   -9.789;  627.099
460.358;   53.828;  -10.259;  797.262
460.948;   53.970;   -7.299;  689.503
461.538;   55.456;  -10.289;  660.677
462.128;   53.006;  -11.269;  664.934
462.717;   59.947;   -9.368;  710.326
463.307;   62.510;   -7.908;  705.846
463.897;   58.929;   -9.599;  656.942
464.486;   58.130;   -9.769;  837.128
465.076;   63.077;   -8.048;  733.776
465.666;   66.065;   -9.358;  652.900
466.255;   63.421;   -7.919;  785.651
466.845;   63.295;  -11.689;  666.749
467.434;   65.671;   -7.818;  725.873
468.023;   66.272;   -7.678;  658.357
468.613;   64.955;  -10.939;  713.946
469.202;   68.649;  -10.118;  646.507
469.791;   72.482;   -9.108;  737.811
470.381;   74.711;   -6.058;  742.813
470.970;   74.576;  -10.428;  711.099
471.559;   74.669;  -10.268;  733.291
472.148;   76.826;   -8.448;  675.737
472.738;   78.958;   -6.917;  765.466
473.327;   79.306;  -11.978;  637.529
473.916;   78.307;  -11.888;  737.446
474.505;   82.956;   -9.437;  751.703
475.094;   86.175;   -6.747;  806.570
475.683;   86.430;   -9.367;  797.699
476.272;   86.611;  -12.637;  730.632
476.861;   89.123;  -10.027;  706.754
477.449;   95.188;   -8.716;  728.487
478.038;   90.503;   -9.577;  692.513
478.627;   91.779;   -9.718;  714.852
479.216;   97.412;   -8.947;  769.441
479.805;  100.829;   -6.256;  783.375
480.393;  100.513;   -7.937; 1008.945
480.982;  100.044;   -7.717;  874.501
481.571;  105.810;   -9.266;  858.333
482.159;  106.639;   -7.636;  705.386
482.748;  106.197;   -9.667;  821.385
483.336;  110.714;  -10.376;  858.209
483.925;  111.818;   -7.147;  774.373
484.513;  117.965;   -7.996;  758.962
485.102;  115.480;  -10.027;  810.965
485.690;  123.487;  -10.446; 1011.050
486.278;  125.514;   -8.446;  979.329
486.867;  126.143;   -6.356;  809.662
487.455;  127.310;   -9.136;  898.229
488.043;  129.809;  -10.646;  748.361
488.631;  137.821;   -7.456; 1005.079
489.220;  142.672;   -6.636;  908.626
489.808;  142.462;  -11.036;  741.415
490.396;  149.477;  -10.246;  914.645
490.984;  155.105;   -8.556;  830.161
491.572;  164.916;   -5.886;  940.315
492.160;  171.045;   -9.486;  919.081
492.748;  182.305;  -10.976;  884.341
493.336;  204.968;   -8.776; 1019.693
493.924;  230.002;   -5.465;  958.077
494.512;  256.877;   -9.986; 1066.638
495.100;  294.537;  -10.636; 1103.280
495.687;  348.198;  -10.885; 1206.373
496.275;  410.503;   -8.126; 1150.796
496.863;  480.441;  -10.586; 1281.171
497.451;  582.263;  -11.926; 1386.805
498.038;  710.512;  -10.885; 1556.729
498.626;  818.704;   -6.315; 1741.407
499.214;  967.859;   -7.326; 2016.609
499.801; 1160.569;  -11.906; 2220.633
500.389; 1410.501;  -10.466; 2312.494
500.976; 1720.135;   -5.236; 2744.849
501.564; 2162.373;   -8.936; 3148.565
502.151; 2526.593;  -13.176; 3515.999
502.738; 2962.401;  -10.646; 3971.274
503.326; 3359.527;   -9.525; 4403.796
503.913; 3744.963;  -10.856; 5161.749
504.500; 4105.563;  -11.586; 5986.420
505.088; 4530.963;  -10.336; 6381.201
505.675; 5064.607;   -6.355; 6925.547
506.262; 5791.488;   -9.046; 7619.060
506.849; 6496.630;  -10.416; 8733.969
507.436; 6954.355;  -10.305; 9790.121
508.023; 7523.702;   -5.496; 9985.472
508.610; 7804.896;   -7.856;10434.618
509.197; 8459.070;  -10.097;11198.435
509.784; 9846.404;  -10.886;12391.194
510.371;10905.173;   -9.315;13603.713
510.958;11607.396;   -9.936;14426.586
511.545;12364.929;   -9.326;15243.775
512.132;13219.782;  -10.075;15945.876
512.719;13732.395;   -7.796;16340.369
513.305;14647.439;  -10.606;18011.766
513.892;15333.929;  -11.486;19754.971
514.479;16692.936;   -9.126;20967.805
515.066;18248.328;   -6.026;22299.793
515.652;19550.543;   -8.466;22908.660
516.239;20832.605;  -10.886;23798.875
516.825;21814.859;  -11.496;25567.275
517.412;22724.639;   -5.796;28154.959
517.998;23302.941;  -10.506;28344.111
518.585;23450.352;  -10.076;27134.219
519.171;24012.814;   -8.315;27268.576
519.758;25276.777;   -8.596;28964.129
520.344;27045.500;   -8.466;30664.494
520.930;27096.523;  -11.006;32550.605
521.516;28375.346;  -10.495;35422.895
522.103;30520.572;   -5.526;38280.004
522.689;31013.877;   -8.746;37835.117
523.275;30536.859;  -11.376;37288.613
523.861;31776.895;  -11.156;37281.395
524.447;33063.902;   -8.135;37846.949
525.033;32732.123;   -7.896;38321.949
525.619;32608.291;  -12.476;38579.285
526.205;34110.227;   -9.516;40622.875
526.791;36178.336;   -6.926;42258.836
527.377;35989.719;   -8.346;42966.902
527.963;36315.684;   -8.717;42018.949
528.549;32881.145;  -11.016;42476.828
529.135;29890.424;   -8.536;41854.852
529.721;30148.607;   -9.666;41237.711
530.306;32262.295;  -10.066;41259.445
530.892;34174.051;  -11.356;41506.047
531.478;36486.523;   -6.596;43559.613
532.063;39497.477;   -8.836;47695.563
532.649;39964.285;  -10.047;50808.324
533.235;40562.027;   -9.746;51787.500
533.820;40692.434;   -6.566;52145.035
534.406;41810.211;  -10.817;51133.488
534.991;41367.020;   -9.416;49996.805
535.576;39496.500;   -9.036;48882.852
536.162;39115.500;   -6.156;46942.285
536.747;38124.270;  -11.607;45711.746
537.333;38526.395;  -11.787;48510.180
537.918;38588.313;  -12.437;50439.891
538.503;37703.059;   -7.196;50863.711
539.088;37744.184;  -10.556;50906.922
539.673;41508.500;   -8.767;52621.965
540.259;44251.043;  -10.026;52368.094
540.844;42953.734;   -7.416;50879.109
541.429;44660.723;   -9.467;52077.777
542.014;47485.813;   -9.527;52716.695
542.599;46681.188;   -9.946;52363.281
543.184;44403.723;   -7.927;53187.137
543.769;45879.164;   -9.297;54697.605
544.354;45218.645;  -10.127;53913.914
544.938;43969.758;   -9.267;49680.164
545.523;46011.246;   -6.506;47386.277
546.108;48803.137;   -9.787;49151.949
546.693;50816.039;  -11.587;51384.637
547.278;50457.129;  -10.986;51853.254
547.862;47564.852;   -8.206;51173.750
548.447;42969.090;  -10.067;51691.395
549.031;42267.297;   -9.637;52456.703
549.616;47221.680;   -9.926;52714.516
550.201;46616.141;   -6.347;52414.598
550.785;47801.074;   -7.917;52355.059
551.370;46768.063;  -10.867;54589.453
551.954;46268.172;   -9.047;58267.348
552.538;47186.855;   -7.827;59062.176
553.123;45590.539;  -10.287;58115.285
553.707;43342.367;  -12.178;56556.285
554.291;44542.359;   -8.717;56201.668
554.876;46805.289;   -7.457;55335.762
555.460;47123.801;  -10.387;54155.703
556.044;48296.719;   -9.618;53721.484
556.628;47060.793;  -11.567;53731.016
557.212;46000.656;   -8.097;54312.531
557.796;44525.012;  -11.077;53797.773
558.380;44508.469;  -11.108;56145.984
558.964;44795.945;   -9.057;57277.930
559.548;46033.688;   -6.977;56459.641
560.132;44383.340;  -11.457;54434.543
560.716;42828.645;  -11.378;54800.617
561.300;43938.781;   -9.577;57606.945
561.884;45166.766;   -7.127;58972.445
562.467;43660.836;   -7.118;57327.570
563.051;43168.523;  -13.358;54962.434
563.635;44252.176;  -10.178;52594.473
564.219;44363.422;   -7.837;50610.410
564.802;45215.066;  -11.398;49551.180
565.386;45219.039;  -12.788;48370.953
565.969;44524.742;   -9.077;48178.871
566.553;43568.086;   -6.207;49957.305
567.136;44179.422;   -8.568;50369.594
567.720;40605.902;  -11.868;49492.004
568.303;38444.465;   -8.268;50616.352
568.887;38505.367;   -8.698;50727.148
569.470;38763.641;   -6.808;51698.379
570.053;37416.238;  -13.188;52122.078
570.637;35896.270;  -12.037;52536.438
571.220;35895.883;   -8.577;51186.098
571.803;36617.352;   -8.498;51032.762
572.386;38789.508;  -10.498;49609.887
572.969;41198.789;   -9.388;48285.926
573.552;39198.441;   -8.338;47624.285
574.135;37748.691;   -8.518;45498.641
574.718;35523.102;  -13.628;41970.434
575.301;34598.906;  -10.893;41447.137
575.884;33674.707;   -8.158;40923.836
576.467;34804.840;  -10.328;45267.723
577.050;36551.547;  -13.058;48175.543
577.633;37940.750;   -9.458;47729.328
578.216;37040.117;   -8.928;47579.793
578.799;36175.848;   -9.358;47820.996
579.381;35127.723;  -11.388;48115.551
579.964;33346.789;  -11.718;47333.766
580.547;35030.293;   -8.588;46668.969
581.129;36115.242;   -8.859;44466.141
581.712;36856.852;  -10.729;44164.922
582.294;37442.879;  -11.118;46477.855
582.877;37307.383;   -5.218;48244.254
583.459;34901.848;   -8.679;47437.895
584.042;33064.313;  -10.709;46943.219
584.624;33651.660;  -11.669;46792.227
585.206;33066.445;   -8.218;46557.250
585.789;32968.012;  -10.569;45793.773
586.371;35854.793;  -11.859;43836.391
586.953;36465.082;  -10.719;42972.492
587.536;37735.742;   -7.198;42487.211
588.118;37754.559;   -8.720;42086.414
588.700;34141.473;  -10.439;43389.930
589.282;33307.820;   -9.198;43646.039
589.864;34133.645;   -9.199;43438.109
590.446;35076.223;  -11.319;43151.926
591.028;35125.391;  -11.159;42781.867
591.610;34138.523;  -11.779;42839.098
592.192;31500.055;   -7.668;42820.402
592.774;30001.328;  -11.949;40724.277
593.356;28682.398;  -12.129;39874.789
593.937;27556.566;  -10.669;39980.648
594.519;29612.105;   -6.509;42069.633
595.101;31813.564;  -10.849;42976.031
595.683;31964.432;  -11.679;44084.441
596.264;33054.523;   -9.049;43478.797
596.846;32591.914;   -8.849;43803.672
597.427;32420.281;   -9.570;42986.934
598.009;34053.035;  -12.620;42832.219
598.591;34524.680;  -10.039;42580.086
599.172;33712.902;  -10.369;43061.805
599.753;33880.469;   -9.140;41691.469
600.335;35361.035;  -11.430;40692.520
600.916;33521.934;   -9.939;39982.422
601.498;30875.305;   -8.479;40318.617
602.079;29309.770;  -10.920;40670.609
602.660;29235.584;  -11.480;41450.898
603.241;30889.951;  -11.699;41137.738
603.823;29756.346;   -9.579;38868.797
604.404;29194.779;  -10.620;38182.785
604.985;30719.055;  -10.450;38078.047
605.566;30585.451;   -9.129;38056.633
606.147;30819.148;   -7.510;37020.418
606.728;32472.713;  -10.660;37883.359
607.309;31232.568;  -11.740;38748.273
607.890;30735.984;   -9.759;38850.230
608.471;30111.832;   -8.250;37457.918
609.051;29188.912;   -9.240;36066.457
609.632;28063.584;  -12.120;35991.074
610.213;28849.846;   -9.110;37402.641
610.794;29588.828;   -8.030;38383.363
611.374;29041.826;   -8.110;40562.387
611.955;29502.455;  -13.560;38533.727
612.536;30833.881;  -11.400;36951.789
613.116;30726.186;   -8.070;37197.891
613.697;31117.023;  -10.830;38411.125
614.277;29589.820;  -11.641;38673.938
614.858;30473.928;  -13.310;37075.863
615.438;29553.660;   -7.460;35092.906
616.019;26974.650;   -7.601;33666.301
616.599;27707.699;  -12.020;34189.023
617.179;29570.777;  -11.780;36952.047
617.760;30593.934;   -8.570;39582.574
618.340;31669.643;  -11.471;38943.977
618.920;32915.633;  -11.170;37594.156
619.500;32563.715;  -11.071;37866.938
620.080;31591.236;   -7.750;37869.043
620.660;32708.416;  -12.711;36868.617
621.241;33997.512;  -10.211;36352.309
621.821;34254.242;  -10.961;35459.520
622.401;33343.125;   -7.720;35207.414
622.980;32752.813;   -8.981;35980.422
623.560;31313.281;   -9.331;37351.328
624.140;29942.795;   -9.850;34388.582
624.720;24845.941;   -7.451;32368.764
625.300;21404.518;   -9.070;32638.629
625.880;24832.867;  -12.601;34599.035
626.459;28779.422;  -11.751;36831.738
627.039;31843.260;   -9.281;38299.098
627.619;31826.096;   -8.801;38289.574
628.198;30319.094;  -12.071;37220.695
628.778;29489.805;   -9.461;37632.563
629.357;30114.928;   -8.491;38003.012
629.937;30010.678;   -9.721;38402.039
630.516;29467.303;   -9.951;37868.801
631.096;29255.648;  -11.731;35760.410
631.675;31723.646;   -8.572;35225.219
632.254;36738.000;  -11.282;35130.289
632.834;36247.770;  -13.322;35794.570
633.413;34476.191;  -10.301;35788.922
633.992;31785.092;   -8.582;34532.863
634.571;32534.271;   -8.352;33590.113
635.151;35540.617;  -11.912;34943.863
635.730;33929.516;  -10.511;35352.523
636.309;30492.609;   -7.731;35366.605
636.888;28003.904;   -9.952;36165.637
637.467;28766.400;  -11.672;37515.902
638.046;30388.889;   -8.901;39288.695
638.625;33514.992;   -7.912;38279.699
639.204;33255.105;  -10.022;37741.598
639.782;31660.684;  -12.252;38364.551
640.361;28010.469;  -10.041;36740.621
640.940;25195.721;  -11.161;34950.082
641.519;25881.271;   -9.701;34137.398
642.097;28841.158;  -11.271;35654.258
642.676;31761.391;   -8.651;35637.957
643.255;32430.541;   -8.711;36567.074
643.833;31564.623;   -9.581;37809.434
644.412;31531.471;  -13.711;37337.293
644.990;30635.557;  -11.811;37018.531
645.569;30587.627;   -9.411;36518.469
646.147;29501.910;  -10.291;36186.430
646.726;29243.471;  -12.401;36267.688
647.304;30564.438;  -10.411;36647.625
647.882;32389.305;   -9.651;39286.742
648.461;34127.539;   -9.631;39157.703
649.039;32492.301;  -11.881;35412.883
649.617;31874.578;   -9.661;34744.918
650.195;31417.568;   -9.301;35403.098
650.773;29950.086;  -10.511;35053.797
651.352;27443.725;  -11.521;33756.816
651.930;25034.246;  -12.211;31868.773
652.508;23602.506;   -9.171;33121.551
653.086;27547.283;   -9.371;33564.793
653.663;30387.109;  -13.161;34054.668
654.241;29206.930;  -13.031;35693.309
654.819;30847.865;   -9.371;36422.906
655.397;31013.836;  -10.511;38213.484
655.975;30693.115;  -10.371;39507.625
656.553;30540.979;  -10.051;39498.223
657.130;28913.033;  -10.061;40395.480
657.708;28094.480;   -9.561;39242.020
658.286;28092.713;  -11.511;38920.020
658.863;29453.529;  -10.261;40202.898
659.441;32554.320;   -7.531;39677.938
660.018;32138.844;   -9.501;40413.355
660.596;31114.480;  -13.301;39931.414
661.173;33103.316;  -11.211;39604.531
661.750;33076.770;   -9.951;39700.070
662.328;31493.381;   -9.390;39292.809
662.905;30574.596;  -11.330;38235.648
663.482;26529.918;   -9.050;36212.305
664.060;24671.633;   -8.240;35944.945
664.637;27466.539;  -10.050;35170.785
665.214;29358.236;  -11.760;34197.523
665.791;30866.400;  -10.530;34549.520
666.368;29687.170;   -9.690;35118.578
666.945;30314.631;   -9.320;36019.418
667.522;32006.859;  -11.860;36048.438
668.099;31660.990;  -10.770;36243.914
668.676;30424.955;   -6.260;35958.875
669.253;29187.777;   -7.000;37384.730
669.830;29906.320;  -10.190;36779.629
670.407;29594.557;   -9.550;35231.289
670.984;29410.607;   -9.260;35544.270
671.560;29976.830;   -9.280;35466.867
672.137;29246.037;  -11.810;34280.863
672.714;30096.963;  -11.490;34632.863
673.290;30728.260;   -7.740;35135.422
673.867;30874.334;  -10.660;36114.480
674.443;30785.646;  -12.230;36152.859
675.020;29078.955;  -10.450;35327.238
675.596;29991.104;   -9.260;35795.176
676.173;30387.639;  -10.780;35430.355
676.749;30194.174;  -13.690;33549.516
677.326;30195.771;  -11.980;32210.012
677.902;30144.393;   -8.630;32068.871
678.478;29464.715;  -10.730;32583.891
679.054;28830.836;  -10.520;32088.928
679.631;29102.188;  -11.920;30978.848
680.207;30716.754;   -7.490;33160.887
680.783;32459.553;   -9.860;35570.363
681.359;31651.508;  -13.380;36125.184
681.935;31015.145;  -12.480;35240.922
682.511;30112.105;   -7.900;34429.961
683.087;30141.988;   -7.710;34463.680
683.663;29658.400;  -11.480;34648.898
684.239;28514.242;  -14.090;34546.457
684.815;28259.295;   -7.560;35586.375
685.390;28586.898;   -9.910;35821.895
685.966;29080.842;  -11.159;35085.871
686.542;31436.363;  -11.169;34198.230
687.118;33552.363;   -5.959;32847.707
687.693;33839.066;  -10.329;32794.027
688.269;33533.445;  -12.059;33072.367
688.844;31804.352;  -10.909;33141.664
689.420;29669.152;   -8.019;33965.742
689.995;27419.871;   -8.399;34655.523
690.571;26045.988;  -10.949;33576.742
691.146;26452.443;   -9.619;32657.219
691.722;25915.783;   -8.999;32526.979
692.297;25627.412;  -11.589;33014.617
692.872;27375.439;  -11.739;34012.254
693.448;26946.994;  -11.059;34237.434
694.023;26133.133;  -10.139;34142.672
694.598;28104.561;   -9.029;34132.031
695.173;28556.045;  -13.319;34205.250
695.748;27838.240;  -10.169;32882.488
696.323;28100.906;   -8.339;32864.906
696.898;28361.578;   -8.169;33170.004
697.473;28118.602;  -12.309;32432.984
698.048;27545.717;  -10.989;31649.303
698.623;27448.271;   -9.329;30778.141
699.198;29410.168;   -9.849;31140.119
699.773;30412.748;  -12.329;31764.299
700.348;28618.063;  -10.389;31780.816
700.922;28563.977;   -9.269;32046.375
701.497;29500.031;   -9.329;32603.574
702.072;29742.492;  -10.789;34799.871
702.646;28424.764;  -10.839;35793.172
703.221;26360.078;   -9.099;35201.590
703.795;28503.125;  -10.939;34764.527
704.370;28916.762;  -12.859;34307.367
704.944;29327.631;  -11.559;33509.887
705.519;30111.703;   -7.939;31388.584
706.093;31586.844;  -10.499;31340.104
706.668;32007.195;  -11.289;32630.281
707.242;30840.393;  -11.509;32728.779
707.816;29171.580;   -9.639;32947.238
708.390;27601.395;  -11.429;33277.855
708.965;28014.568;  -11.869;33834.336
709.539;27940.100;  -11.689;33709.273
710.113;28493.021;  -10.478;33044.313
710.687;28119.168;  -10.228;31953.992
711.261;26558.078;  -13.698;30505.949
711.835;26392.664;  -13.378;30262.369
712.409;27148.865;   -9.698;31254.447
712.983;28951.793;  -11.898;32754.986
713.557;29915.742;  -15.138;34018.824
714.131;29577.330;  -14.098;34579.625
714.704;28542.660;   -9.958;33890.262
715.278;26231.695;  -10.028;33531.102
715.852;25229.732;  -11.148;33601.660
716.425;26114.623;   -9.068;33515.117
716.999;26877.320;  -10.038;33185.555
717.573;27836.355;   -9.798;33905.996
718.146;28936.514;  -12.378;35199.293
718.720;28906.814;  -11.918;35060.551
719.293;28389.742;   -8.088;34973.230
719.867;31356.646;  -10.888;36394.449
720.440;31174.111;  -11.938;36663.008
721.013;29548.285;  -12.818;35102.426
721.587;28014.658;  -10.298;33985.266
722.160;26967.959;  -10.048;33524.965
722.733;25939.477;  -12.108;32987.043
723.306;26165.301;  -10.818;33066.301
723.880;28572.875;   -8.908;33399.500
724.453;30655.584;   -9.878;33468.297
725.026;29774.033;  -11.188;33816.637
725.599;26999.287;  -11.678;32797.996
726.172;27162.719;   -9.618;33187.434
726.745;28015.682;   -8.258;35136.613
727.318;29247.641;  -12.978;35751.730
727.891;29855.922;  -12.148;35890.430
728.463;29829.443;   -8.968;34822.090
729.036;28934.338;  -10.188;32895.086
729.609;29350.561;  -11.788;31823.225
730.182;26293.209;  -11.788;31445.283
730.754;23748.750;  -10.268;32373.223
731.327;23775.859;   -9.998;33676.820
731.900;24034.807;  -12.228;33417.000
732.472;25394.627;  -13.848;31978.498
733.045;27405.492;   -8.698;30368.777
733.617;27541.395;  -10.607;30574.215
734.190;27196.617;  -11.507;31280.975
734.762;24327.623;  -13.647;31674.412
735.334;22503.980;   -9.767;31247.291
735.907;23120.105;   -9.897;29876.211
736.479;23283.967;  -11.637;29808.488
737.051;22938.600;   -9.567;30233.547
737.623;23845.504;   -8.187;31469.086
738.195;24619.105;  -11.187;31784.225
738.768;26548.570;  -12.337;32120.523
739.340;26828.463;  -12.227;32094.342
739.912;25629.982;  -11.057;31312.680
740.484;24148.807;  -10.207;31946.238
741.056;22992.400;  -10.047;32984.059
741.628;24771.066;  -13.627;33897.715
742.199;26934.629;   -7.177;33213.016
742.771;25260.811;  -10.797;31369.113
743.343;22983.441;  -11.997;31865.473
743.915;21975.412;  -12.867;32388.631
744.487;22078.758;   -7.617;31079.568
745.058;22357.271;   -9.557;30570.107
745.630;22842.340;   -9.877;29970.127
746.201;23647.184;  -14.177;29186.766
746.773;24059.813;   -9.237;28805.723
747.344;23800.740;   -9.847;29591.223
747.916;22289.148;  -11.657;31412.201
748.487;22428.000;  -10.587;32194.898
749.059;23514.959;   -8.707;32533.719
749.630;24137.881;  -10.537;32158.518
750.201;23174.410;  -11.687;30855.395
750.773;21522.432;  -11.647;28622.555
751.344;21622.473;   -7.147;28405.732
751.915;22977.523;   -9.757;28461.551
752.486;22983.938;  -12.427;27842.850
753.057;20665.637;  -12.227;27845.008
753.628;19353.520;  -10.417;27728.107
754.199;20495.623;  -11.767;27381.086
754.770;21570.861;  -11.187;25882.203
755.341;21588.760;  -10.507;25886.184
755.912;21579.523;   -9.387;26050.861
756.483;21063.754;  -10.647;26798.779
757.054;19336.176;  -11.837;27048.238
757.625;18077.943;  -12.716;26294.838
758.195;17781.498;   -9.666;26142.076
758.766;17451.352;   -8.656;26392.234
759.337;18261.189;  -12.856;26334.594
759.907;19991.553;  -13.366;27579.652
760.478;20966.012;   -8.576;28352.770
761.048;20399.514;  -10.526;27325.088
761.619;19520.229;  -11.116;26460.428
762.189;19474.494;  -12.136;26029.826
762.760;20490.545;   -9.456;26430.145
763.330;21619.801;   -7.136;26670.902
763.900;21056.664;  -11.786;26603.021
764.471;18533.248;  -11.546;25542.740
765.041;17354.637;   -8.096;24358.459
765.611;17422.344;   -8.876;23991.297
766.181;17783.418;  -12.196;24470.236
766.751;18722.502;  -11.636;24845.975
767.321;18521.619;  -10.156;24533.633
767.891;16633.785;  -11.766;24916.492
768.461;16100.546;  -14.936;24776.771
769.031;16607.436;  -12.356;24757.988
769.601;18195.982;   -7.526;24181.088
770.171;17990.818;  -10.766;23670.387
770.741;17136.883;  -13.176;22960.045
771.311;17247.535;  -10.616;22917.523
771.880;17632.582;   -9.576;23562.941
772.450;17306.803;  -10.336;24216.500
773.020;17310.750;  -13.516;24140.398
773.589;16667.760;  -13.466;24414.857
774.159;16057.338;   -8.686;23858.717
774.729;15662.038;   -9.476;22942.135
775.298;15150.509;  -13.666;22324.033
775.867;14776.259;  -11.716;21140.313
776.437;14909.510;   -9.906;20838.092
777.006;14750.647;  -12.166;20599.510
777.576;14652.727;  -12.356;20508.809
778.145;14739.036;  -11.646;20732.947
778.714;14596.447;   -8.226;21062.465
779.283;13834.385;   -9.556;20949.664
779.853;13339.094;  -14.116;20508.623
780.422;13809.124;  -11.506;20649.082
780.991;13389.774;   -9.556;21527.520
781.560;12203.216;   -9.095;22632.658
782.129;12027.721;  -12.135;23048.277
782.698;12072.286;  -10.865;23438.555
783.267;11694.572;   -9.335;23267.734
783.836;11657.183;  -11.045;22415.133
784.404;12737.990;  -13.865;20443.152
784.973;13346.298;  -13.095;19699.150
785.542;13203.407;  -11.575;19763.828
786.111;12961.952;   -9.705;20341.408
786.679;12450.430;  -12.105;20207.967
787.248;12226.673;  -12.455;19516.465
787.817;12089.405;  -11.535;18900.363
788.385;11708.455;   -9.765;17879.121
788.954;11108.551;  -14.005;17658.301
789.522;10570.408;  -11.955;17788.879
790.090;11145.508;  -10.135;18118.277
790.659;11545.943;  -10.975;18338.736
791.227;11043.509;  -13.375;18508.615
791.795;11455.358;  -12.375;17898.254
792.364;11838.105;  -10.725;17295.133
792.932;12204.582;   -9.715;16822.051
793.500;12363.604;  -12.675;17040.148
794.068;12529.335;  -13.495;17179.787
794.636;12641.104;  -10.885;16664.246
795.204;12073.917;  -11.045;16524.545
795.772;12144.821;  -13.175;17274.564
796.340;11673.797;  -12.445;17891.002
796.908;11489.597;   -9.735;17648.561
797.476;11396.860;   -9.815;17064.080
798.044;10956.533;  -13.985;16672.777
798.612;10116.826;  -13.115;17023.996
799.180; 9706.491;  -10.185;16561.615
799.747; 9624.157;   -9.055;15962.773
800.315; 9376.630;  -12.385;15296.992
800.883; 9038.361;  -15.035;14801.771
801.450; 9041.239;  -10.365;14534.430
802.018; 9112.116;   -9.855;14173.248
802.585; 9286.529;  -11.905;14029.547
803.153; 9338.924;  -11.585;13836.846
803.720; 9108.345;   -9.095;13567.324
804.287; 8639.690;   -9.135;13360.622
804.855; 8227.660;  -11.604;13681.981
805.422; 8094.746;  -11.794;13536.560
805.989; 8103.093;  -10.734;13355.958
806.556; 8256.404;  -10.444;13747.896
807.124; 8468.301;  -12.764;13987.376
807.691; 8428.033;  -12.964;14038.674
808.258; 8253.480;  -11.134;14120.152
808.825; 7976.614;   -9.854;13860.111
809.392; 8036.952;  -10.504;13268.790
809.959; 7525.608;  -13.054;12680.389
810.526; 7082.204;   -8.294;12427.308
811.093; 7140.489;   -8.394;12030.105
811.659; 7785.253;  -12.304;11653.664
812.226; 8325.126;  -13.944;11637.183
812.793; 8041.546;  -10.484;11611.521
813.360; 7411.702;  -10.144;11885.181
813.926; 7103.001;  -11.684;12770.539
814.493; 6867.273;  -13.644;12677.638
815.060; 6467.273;   -9.724;11974.336
815.626; 6463.632;   -9.854;11594.715
816.193; 6875.979;  -13.254;11579.474
816.759; 6897.580;  -13.204;11666.972
817.325; 6942.776;   -9.434;11325.530
817.892; 7318.183;  -10.134;11105.369
818.458; 7771.223;  -13.474;10843.928
819.024; 7388.210;  -11.854;10714.406
819.591; 7062.349;  -10.244;10469.165
820.157; 6842.427;  -10.704;10235.523
820.723; 6328.508;  -12.324;10847.563
821.289; 6013.033;   -9.444;11040.980
821.855; 5943.891;   -8.374;10357.100
822.421; 5955.827;  -10.234; 9978.918
822.987; 5970.019;  -13.294; 9754.177
823.553; 5653.121;  -10.884;10065.755
824.119; 5467.427;   -8.884;10036.294
824.685; 5540.783;   -6.784;10029.192
825.251; 5631.124;  -12.004;10199.230
825.816; 5600.181;  -11.474; 9820.189
826.382; 5363.795;   -9.174; 9297.248
826.948; 5556.055;   -9.214; 9381.347
827.513; 5966.434;  -10.774; 9450.726
828.079; 5801.769;  -11.924; 9472.444
828.645; 5209.607;  -10.543; 9292.643
829.210; 5111.538;  -10.533; 9065.341
829.776; 5106.759;  -10.753; 9132.620
830.341; 5002.120;  -10.173; 9092.878
830.906; 5198.579;  -10.743; 9078.557
831.472; 5538.049;  -11.113; 8534.535
832.037; 5272.807;  -10.603; 8677.874
832.602; 4724.976;  -13.323; 8628.692
833.167; 4462.377;  -10.823; 8879.031
833.733; 4396.021;  -10.113; 9189.790
834.298; 4537.035;  -13.583; 9052.608
834.863; 4605.752;  -12.703; 8895.087
835.428; 4565.672;  -10.523; 8824.266
835.993; 4415.774;   -6.963; 8845.385
836.558; 4252.933;  -10.763; 8888.563
837.123; 4387.118;   -9.903; 8966.582
837.688; 4626.611;   -9.913; 8617.860
838.253; 4878.750;  -10.283; 8590.699
838.817; 5087.695;  -12.963; 8443.797
839.382; 4986.577;  -14.243; 8799.356
839.947; 4662.255;  -10.733; 8810.595
840.511; 4354.497;   -9.383; 8796.394
841.076; 3971.251;  -12.563; 8347.231
841.641; 4029.676;  -12.953; 8224.330
842.205; 4130.350;   -7.043; 8223.349
842.770; 4243.976;   -8.163; 8622.107
843.334; 4402.182;  -12.503; 8410.386
843.898; 4336.893;  -11.693; 8337.465
844.463; 4349.327;  -10.203; 8506.283
845.027; 4113.421;   -9.533; 8280.962
845.591; 3935.746;  -13.443; 8231.141
846.156; 3921.396;  -13.143; 7969.179
846.720; 3805.745;   -9.433; 7768.278
847.284; 3681.818;  -11.033; 7630.957
847.848; 3553.436;  -10.403; 7472.395
848.412; 3465.057;  -11.553; 7437.394
848.976; 3511.764;   -8.393; 7674.592
849.540; 3445.438;   -8.713; 7836.011
850.104; 3565.747;  -12.463; 7913.669
850.668; 3922.911;  -12.973; 7694.508
851.232; 4013.707;  -10.793; 7756.887
851.796; 3846.224;  -10.662; 7926.545
852.359; 3547.141;  -13.082; 7827.844
852.923; 3374.761;  -12.192; 7641.163
853.487; 3186.850;  -11.912; 7342.501
854.050; 3140.315;  -10.892; 7042.820
854.614; 3285.644;  -13.992; 7151.338
855.177; 3421.976;  -11.732; 7105.077
855.741; 3462.800;   -8.962; 6989.675
856.304; 3339.319;   -9.442; 6596.634
856.868; 3285.432;  -14.192; 6356.272
857.431; 3385.237;  -12.702; 6468.571
857.995; 3512.515;   -9.942; 6373.210
858.558; 3520.395;   -9.112; 6324.448
859.121; 3232.450;  -12.932; 6408.327
859.684; 3104.152;  -13.442; 6347.886
860.247; 3217.398;  -10.632; 6321.264
860.810; 3209.293;  -11.272; 6301.903
861.374; 2948.044;   -9.832; 6607.881
861.937; 2687.214;  -11.762; 6408.200
862.500; 2680.445;   -9.722; 6572.639
863.062; 2861.146;  -10.512; 6387.297
863.625; 3035.231;  -11.232; 6190.836
864.188; 3195.551;  -14.112; 5807.254
864.751; 3262.633;  -11.302; 5682.413
865.314; 3158.873;  -10.112; 5547.492
865.876; 2945.552;  -12.182; 5500.150
866.439; 2925.710;  -10.722; 5415.909
867.002; 2872.890;   -9.252; 5501.567
867.564; 2668.499;   -9.572; 5413.946
868.127; 2446.231;  -13.142; 5160.325
868.689; 2341.597;  -12.902; 5133.183
869.252; 2251.751;   -9.732; 5252.382
869.814; 2161.302;   -9.432; 5297.141
870.377; 2174.832;  -11.552; 5390.919
870.939; 2242.245;   -9.052; 5599.898
871.501; 2302.948;  -10.982; 5248.336
872.063; 2304.774;  -12.292; 4854.235
872.626; 2271.563;  -14.912; 4817.074
873.188; 2302.021;  -13.112; 4987.732
873.750; 2266.485;  -13.442; 4868.651
874.312; 2159.017;   -9.402; 4779.330
874.874; 2072.132;  -11.062; 4866.348
875.436; 1985.202;  -13.931; 4718.887
875.998; 1981.862;   -9.561; 4660.005
876.560; 2011.071;  -11.321; 4462.964
877.122; 1958.705;  -12.221; 4145.042
877.683; 1872.344;  -12.191; 4056.481
878.245; 1810.782;  -12.101; 3950.740
878.807; 1860.580;   -8.971; 4058.958
879.369; 1880.527;  -12.071; 3954.677
879.930; 1765.027;  -14.621; 3941.495
880.492; 1694.610;  -10.311; 4067.014
881.053; 1682.024;  -10.901; 3859.633
881.615; 1625.900;  -14.411; 3776.071
882.176; 1602.105;  -13.761; 3734.750
882.738; 1619.444;   -9.181; 3678.489
883.299; 1560.021;  -11.791; 3405.407
883.860; 1396.864;  -13.121; 3351.106
884.422; 1130.862;  -11.211; 3394.044
884.983;  860.019;  -10.091; 3166.443
885.544;  710.280;   -8.461; 3189.802
886.105;  679.503;  -12.361; 3160.360
886.666;  687.372;  -14.141; 3093.059
887.227;  700.318;  -11.361; 2941.957
887.788;  702.476;  -11.401; 2974.836
888.349;  695.827;  -13.791; 2721.214
888.910;  722.279;  -13.191; 2696.493
889.471;  747.968;   -9.881; 2560.172
890.032;  747.701;   -9.881; 2558.190
890.593;  738.491;  -10.371; 2567.669
891.153;  720.421;  -13.301; 2460.307
891.714;  682.730;  -11.431; 2372.046
892.275;  654.916;  -11.291; 2309.505
892.835;  626.810;  -11.471; 2382.543
893.396;  582.145;  -11.541; 2295.502
893.956;  532.990;  -11.181; 2162.420
894.517;  500.222;  -11.741; 2125.439
895.077;  497.502;  -11.671; 2086.978
895.638;  497.433;  -11.311; 2126.316
896.198;  471.636;   -9.831; 1838.275
896.758;  432.233;   -8.421; 1892.813
897.319;  404.162;  -12.351; 1792.232
897.879;  389.460;  -13.511; 1762.751
898.439;  364.938;  -12.001; 1661.149
898.999;  342.762;  -10.180; 1781.468
899.559;  334.144;  -12.030; 1703.347
900.119;  330.371;  -15.710; 1537.525
900.679;  328.580;   -8.900; 1638.384
901.239;  315.086;   -8.340; 1527.902
901.799;  303.928;  -13.910; 1456.441
902.359;  298.858;  -13.460; 1357.140
902.919;  291.545;  -11.490; 1331.118
903.479;  279.770;  -12.110; 1317.257
904.038;  259.677;  -11.720; 1262.595
904.598;  244.811;  -13.610; 1152.034
905.158;  240.682;  -11.040; 1240.893
905.717;  235.368;  -10.900; 1233.691
906.277;  224.616;  -15.080; 1217.330
906.836;  214.584;  -13.380; 1222.408
907.396;  207.064;  -10.780; 1193.047
907.955;  199.398;   -8.500; 1182.526
908.515;  192.926;  -12.760; 1099.364
909.074;  184.315;  -11.900; 1092.863
909.633;  176.661;   -8.950; 1069.121
910.192;  171.515;   -8.770; 1196.460
910.752;  166.177;  -12.390; 1029.960
911.311;  163.221;  -13.680; 1009.780
911.870;  162.800;  -12.370;  971.460
912.429;  163.238;  -10.900; 1094.080
912.988;  162.780;  -11.690; 1081.060
913.547;  158.325;  -13.240;  940.380
914.106;  154.345;  -11.990;  999.420
914.665;  151.239;   -9.990;  984.020
915.224;  151.563;  -12.880; 1035.760
915.782;  151.075;  -12.350;  922.560
916.341;  150.403;   -9.110; 1049.840
916.900;  147.491;   -9.270;  925.260
917.458;  145.948;  -13.240;  884.220
918.017;  144.660;  -13.550;  942.600
918.576;  145.195;  -12.320;  904.440
919.134;  142.849;  -11.490;  837.980
919.693;  141.190;  -13.670;  893.060
920.251;  138.213;  -15.470;  876.500
920.809;  137.906;  -11.290;  839.580
921.368;  137.690;  -10.210;  885.360
921.926;  136.846;  -12.140;  842.940
922.484;  135.016;  -13.080;  903.360
923.042;  134.714;  -11.720;  880.340
923.601;  137.643;   -7.480;  998.680
924.159;  135.824;  -11.570;  935.560
924.717;  132.616;  -13.840;  841.080
925.275;  132.538;  -10.640;  903.240
925.833;  132.516;  -11.540;  779.320
926.391;  133.390;  -12.960;  938.380
926.949;  131.938;  -14.130;  857.680
927.506;  133.171;  -11.750;  903.500
928.064;  132.983;  -10.250;  877.580
928.622;  131.859;  -13.030;  880.100
929.180;  132.195;  -13.400;  814.180
929.737;  132.962;  -10.700;  808.540
930.295;  137.238;  -10.070;  928.480
930.853;  137.569;  -11.960;  849.100
931.410;  137.482;  -13.120;  821.120
931.968;  137.345;  -10.770;  940.660
932.525;  138.093;  -10.680;  909.380
933.082;  138.256;  -13.130;  811.440
933.640;  138.755;  -13.210;  925.900
934.197;  138.080;  -11.060;  886.360
934.754;  137.743;   -9.580;  897.780
935.312;  140.947;  -14.000;  863.340
935.869;  144.422;  -10.710; 1012.980
936.426;  145.183;   -9.860;  872.800
936.983;  146.397;   -9.710;  889.020
937.540;  146.252;  -13.990;  838.280
938.097;  144.455;  -14.040;  940.120
938.654;  144.243;  -10.310;  898.860
939.211;  147.339;  -10.560;  952.480
939.768;  151.248;  -13.900;  915.420
940.324;  153.680;  -14.760;  904.200
940.881;  154.980;  -10.370;  878.500
941.438;  155.861;   -8.260; 1021.200
941.995;  151.756;  -12.540;  992.560
942.551;  149.218;  -14.670;  875.620
943.108;  149.313;  -10.450;  937.920
943.664;  152.071;  -10.750;  869.340
944.221;  155.818;  -11.550; 1088.140
944.777;  152.293;  -14.770;  869.680
945.334;  153.093;  -12.820;  884.840
945.890;  155.205;  -10.130;  946.480
946.446;  155.438;  -13.470;  947.020
947.003;  157.620;  -12.120;  964.940
947.559;  159.585;   -9.980; 1063.040
948.115;  158.577;   -9.080; 1026.540
948.671;  157.925;  -10.830;  967.300
949.227;  154.515;  -12.440;  859.560
949.783;  151.475;  -12.910;  858.900
950.339;  153.309;  -10.270;  991.000
950.895;  154.231;  -13.630; 1023.840
951.451;  152.720;  -15.100;  925.280
952.007;  153.424;  -11.330;  998.540
952.563;  154.006;  -10.580;  937.780
953.118;  153.108;  -13.440;  904.940
953.674;  152.198;  -12.710;  935.780
954.230;  152.039;  -10.350;  949.640
954.785;  149.743;   -9.190;  936.640
955.341;  147.971;  -11.200;  998.160
955.897;  145.648;  -16.560;  834.660
956.452;  146.217;  -12.570;  953.840
957.008;  145.561;   -7.970; 1083.640
957.563;  143.029;  -11.940; 1009.540
958.118;  138.424;  -13.450;  877.700
958.674;  138.402;  -12.030;  946.780
959.229;  140.516;   -9.410; 1013.980
959.784;  137.835;  -12.000;  832.400
960.339;  137.260;  -14.780; 1001.280
960.894;  133.426;   -9.860;  963.760
961.449;  130.131;   -9.970;  859.960
962.004;  130.921;  -10.900; 1212.840
962.559;  124.559;  -13.150;  860.140
963.114;  122.427;  -13.740;  742.480
963.669;  121.874;   -9.820;  915.500
964.224;  120.882;  -13.890;  874.340
964.779;  119.108;  -12.600;  828.420
965.334;  119.905;  -10.950; 1017.860
965.888;  119.015;  -11.170;  875.360
966.443;  123.290;  -12.540;  972.380
966.998;  121.726;  -15.780;  819.460
967.552;  119.906;   -9.760;  908.380
968.107;  116.574;   -9.060;  868.300
968.661;  118.527;  -11.950;  922.440
969.216;  117.733;  -12.800;  856.280
969.770;  118.146;  -11.210;  917.200
970.324;  117.980;  -11.610;  923.140
970.879;  114.464;  -11.370;  947.180
971.433;  111.424;  -12.540;  952.720
971.987;  106.682;  -11.320;  895.340
972.541;  104.103;  -10.720;  917.100
973.095;  104.299;   -9.680; 1009.460
973.649;  102.155;  -11.440;  809.480
974.203;  101.128;  -11.210;  829.040
974.757;  100.890;  -10.240;  855.220
975.311;  101.827;  -13.720;  872.600
975.865;   99.546;  -13.770;  881.820
976.419;   97.826;  -11.690;  857.400
976.973;   98.184;   -9.510;  849.620
977.526;  100.574;  -12.620;  949.920
978.080;   99.068;  -12.010;  796.780
978.634;  101.037;  -10.170;  921.320
979.187;   97.960;   -9.020;  905.400
979.741;   95.692;   -9.820; 1018.380
980.294;   90.383;  -14.870;  789.160
980.848;   89.004;  -12.380;  717.220
981.401;   90.118;  -10.350;  816.540
981.955;   93.621;  -13.720;  844.300
982.508;   92.146;  -11.490;  746.340
983.061;   92.130;  -10.000;  915.260
983.615;   88.499;  -11.480;  798.800
984.168;   85.221;  -13.220;  770.080
984.721;   84.130;  -13.960;  880.760
985.274;   84.252;  -10.870;  867.500
985.827;   82.890;   -9.790;  834.220
986.380;   80.518;  -13.120;  721.340
986.933;   79.108;  -12.450;  864.800
987.486;   77.631;  -10.210;  861.920
988.039;   76.487;   -8.430;  863.100
988.591;   75.205;  -10.520;  893.260
989.144;   72.506;  -14.860;  737.260
989.697;   71.369;  -13.080;  758.740
990.250;   72.571;  -10.150;  858.100
990.802;   70.776;  -13.430;  755.860
991.355;   72.505;  -12.750;  974.880
991.907;   70.492;  -12.040;  864.320
992.460;   68.479;  -11.330;  753.760
993.012;   66.629;  -13.610;  749.540
993.565;   66.289;  -13.460;  711.360
994.117;   67.209;   -9.360;  950.780
994.669;   63.395;  -11.300;  701.320
995.221;   61.501;  -13.540;  791.920
995.774;   60.369;  -13.430;  787.580
996.326;   58.404;  -12.520;  740.220
996.878;   58.039;  -10.950;  838.420
997.430;   56.744;  -14.300;  699.860
997.982;   55.624;  -13.760;  750.140
998.534;   54.671;  -11.530;  739.060
999.086;   53.595;  -10.310;  738.220
999.638;   52.690;  -12.530;  661.380
1000.190;   51.674;  -11.840;  699.320
1000.741;   51.252;  -10.260;  742.700
1001.293;   51.110;   -8.860;  686.020
1001.845;   49.721;  -13.700;  676.640
1002.396;   50.213;  -12.100;  743.400
1002.948;   49.137;  -12.760;  737.400
1003.500;   47.513;  -10.380;  723.780
1004.051;   48.403;  -11.900;  907.580
1004.603;   46.752;  -12.250;  791.820
1005.154;   42.543;  -13.210;  608.980
1005.705;   41.805;  -10.950;  723.960
1006.257;   42.933;  -13.880;  707.220
1006.808;   41.503;  -12.840;  685.460
1007.359;   40.129;  -10.570;  763.240
1007.910;   39.923;   -9.620;  646.640
1008.461;   39.298;  -13.630;  732.940
1009.013;   38.135;  -17.200;  588.340
1009.564;   38.950;  -10.200;  793.520
1010.115;   37.107;  -12.570;  597.040
1010.665;   37.609;  -15.150;  602.160
1011.216;   36.990;  -14.480;  667.920
1011.767;   36.871;  -11.340;  697.920
1012.318;   36.576;   -9.780;  736.980
1012.869;   36.286;  -12.380;  679.000
1013.419;   35.251;  -15.560;  603.120
1013.970;   35.874;  -11.010;  666.640
1014.521;   34.136;  -11.610;  620.620
1015.071;   34.950;  -13.450;  670.380
1015.622;   34.847;  -13.870;  635.460
1016.172;   33.541;  -11.610;  596.820
1016.723;   33.256;  -12.120;  614.380
1017.273;   32.777;  -13.620;  604.160
1017.823;   33.725;  -14.140;  650.340
1018.374;   32.644;  -12.800;  611.760
1018.924;   33.543;  -12.340;  716.880
1019.474;   33.269;  -11.410;  718.880
1020.024;   31.457;  -14.770;  657.580
1020.574;   32.978;   -9.780;  726.160
1021.124;   33.219;   -8.560;  673.580
1021.674;   31.186;  -15.190;  559.120
1022.224;   32.586;  -13.530;  708.940
1022.774;   32.065;  -13.280;  668.820
1023.324;   31.797;  -10.690;  753.520
1023.874;   33.223;  -10.240;  875.760
1024.423;   30.558;  -12.540;  613.700
1024.973;   30.341;  -10.010;  610.760
1025.523;   30.283;  -10.550;  620.960
1026.072;   29.683;  -13.560;  606.420
1026.622;   29.469;  -15.120;  675.740
1027.172;   29.786;  -11.260;  715.660
1027.721;   29.328;  -11.410;  601.220
1028.270;   29.596;  -13.530;  663.400
1028.820;   29.661;  -13.680;  638.080
1029.369;   28.329;  -13.520;  612.700
1029.918;   28.857;  -10.980;  649.840
1030.468;   28.187;  -13.530;  564.780
1031.017;   29.101;  -13.170;  634.800
1031.566;   27.655;  -12.200;  608.900
1032.115;   28.120;   -9.960;  694.500
1032.664;   27.810;  -13.210;  596.480
1033.213;   27.739;  -12.500;  735.420
1033.762;   27.378;  -11.910;  635.620
1034.311;   27.261;   -9.640;  677.220
1034.860;   27.385;  -13.310;  691.000
1035.408;   27.800;  -11.830;  722.720
1035.957;   27.502;  -12.000;  719.540
1036.506;   25.550;  -11.690;  530.800
1037.055;   27.767;  -10.990;  844.320
1037.603;   25.973;  -15.120;  664.000
1038.152;   23.818;  -12.450;  534.760
1038.700;   24.973;  -10.560;  585.740
1039.249;   25.904;  -11.080;  681.220
1039.797;   25.744;  -12.540;  633.360
1040.345;   25.230;  -11.920;  705.420
1040.894;   24.572;  -11.410;  625.300
1041.442;   25.018;  -14.320;  632.200
1041.990;   23.974;  -16.240;  559.160
1042.538;   23.479;  -11.680;  536.180
1043.087;   23.967;  -10.760;  570.860
1043.635;   25.057;  -11.850;  670.500
1044.183;   23.346;  -15.480;  586.400
1044.731;   22.652;  -11.770;  576.000
1045.279;   22.677;  -13.090;  674.920
1045.827;   25.267;  -12.440;  892.400
1046.374;   22.580;  -13.840;  515.420
1046.922;   22.257;  -13.220;  590.580
1047.470;   23.541;  -10.230;  691.300
1048.018;   23.454;  -14.590;  647.960
1048.565;   23.584;  -12.050;  708.600
1049.113;   21.400;  -11.650;  557.000
1049.660;   21.724;  -10.510;  629.660
1050.208;   22.191;  -13.310;  675.640
1050.755;   22.009;  -15.900;  606.580
1051.303;   22.070;  -11.430;  686.820
1051.850;   21.561;   -8.480;  635.120
1052.397;   20.386;  -15.010;  473.960
1052.945;   20.823;  -13.960;  617.760
1053.492;   22.453;  -13.150;  741.840
1054.039;   21.669;   -9.630;  720.180
1054.586;   20.818;  -13.680;  557.240
1055.133;   21.064;  -14.570;  693.140
1055.680;   20.440;  -13.820;  646.620
1056.227;   20.032;  -11.730;  542.780
1056.774;   21.864;  -12.480;  794.980
1057.321;   19.113;  -13.930;  523.260
1057.868;   19.456;  -11.690;  651.320
1058.415;   20.031;   -9.520;  651.980
1058.961;   20.215;  -13.160;  678.940
1059.508;   19.915;  -12.920;  643.820
1060.055;   19.131;  -11.920;  581.780
1060.601;   19.438;  -11.500;  624.300
1061.148;   19.240;  -14.330;  616.820
1061.694;   18.999;  -16.870;  592.580
1062.241;   18.564;  -10.330;  596.320
1062.787;   19.662;  -10.620;  663.140
1063.334;   20.665;  -10.110;  808.560
1063.880;   19.245;  -13.400;  668.360
1064.426;   18.144;  -10.680;  706.820
1064.972;   17.904;   -9.920;  601.340
1065.518;   17.009;  -10.980;  566.640
1066.065;   18.050;  -14.890;  624.460
1066.611;   17.316;  -12.870;  598.800
1067.157;   18.260;  -12.950;  641.860
1067.703;   18.188;  -13.540;  668.480
1068.249;   17.017;  -13.540;  605.220
1068.794;   16.951;  -12.600;  626.880
1069.340;   16.962;  -10.620;  578.960
1069.886;   17.145;  -12.830;  590.700
1070.432;   16.110;  -14.870;  541.720
1070.977;   16.065;  -11.980;  601.080
1071.523;   16.122;   -8.200;  573.060
1072.068;   16.981;  -12.330;  582.000
1072.614;   16.558;  -16.370;  527.760
1073.160;   17.294;  -11.100;  687.040
1073.705;   15.603;  -10.480;  572.520
1074.250;   15.751;  -14.520;  559.900
1074.796;   16.277;  -11.460;  655.160
1075.341;   15.853;  -11.950;  664.100
1075.886;   15.502;  -11.460;  594.240
1076.431;   15.203;  -13.770;  649.880
1076.976;   15.198;  -12.680;  639.220
1077.521;   14.743;  -13.170;  583.080
1078.067;   14.709;  -10.860;  579.400
1078.612;   15.687;  -13.920;  661.620
1079.156;   14.250;  -13.880;  601.540
1079.701;   15.043;  -13.120;  693.260
1080.246;   15.094;   -9.940;  696.300
1080.791;   15.000;  -14.740;  625.020
1081.336;   14.273;  -13.750;  659.320
1081.880;   14.557;  -13.400;  649.680
1082.425;   13.158;  -12.220;  573.480
1082.970;   15.874;  -11.610;  717.040
1083.514;   13.806;  -13.580;  597.000
1084.059;   12.908;  -12.810;  586.720
1084.603;   13.376;  -12.320;  565.840
1085.147;   13.493;  -13.190;  645.220
1085.692;   14.045;  -12.480;  716.800
1086.236;   12.652;  -13.020;  503.140
1086.780;   14.086;   -9.190;  751.440
1087.325;   14.541;  -12.480;  654.620
1087.869;   13.216;  -12.450;  610.700
1088.413;   13.929;  -12.240;  705.040
1088.957;   11.574;   -9.020;  543.400
1089.501;   13.928;  -10.320;  766.640
1090.045;   13.557;  -12.720;  726.480
1090.589;   11.088;  -13.690;  569.920
1091.133;   11.838;  -10.020;  673.340
1091.676;   12.541;  -12.330;  591.940
1092.220;   11.550;  -14.970;  600.920
1092.764;   12.723;  -12.430;  706.960
1093.307;   12.167;   -9.800;  673.780
1093.851;   10.622;  -14.970;  556.540
1094.395;   12.611;  -15.310;  683.140
1094.938;   11.340;  -10.370;  632.520
1095.482;   11.320;  -11.050;  559.800
1096.025;   12.029;  -11.840;  710.880
1096.568;   12.345;  -12.840;  779.280
1097.112;    9.760;  -14.700;  508.180
1097.655;   11.276;   -8.720;  603.000
1098.198;   10.727;  -13.610;  600.180
1098.741;   10.262;  -13.350;  612.860
1099.285;   11.153;  -11.230;  657.300
1099.828;    9.449;  -11.840;  439.400
1100.371;   10.098;  -10.840;  608.160
1100.914;   10.444;  -14.190;  682.660
1101.457;   10.387;  -11.240;  679.900
1101.999;    8.741;  -11.270;  584.680
1102.542;   10.643;  -11.480;  641.440
1103.085;    9.695;  -11.750;  658.500
1103.628;   10.437;  -11.400;  762.060
1104.170;    9.685;  -10.490;  588.280
1104.713;   10.308;  -10.600;  646.700
1105.256;    9.491;  -14.360;  557.440
1105.798;    8.663;  -13.210;  499.980
1106.341;   10.449;  -10.270;  728.900
1106.883;    8.610;  -12.200;  521.340
1107.425;    9.029;  -13.110;  668.180
1107.968;    8.633;  -12.840;  612.380
1108.510;    9.480;   -6.480;  684.960
1109.052;    7.985;  -13.940;  612.620
1109.594;    8.552;  -13.690;  554.440
1110.136;    8.681;  -11.880;  643.220
1110.679;    8.389;   -9.500;  633.080
1111.221;    8.440;  -14.160;  604.460
1111.763;    7.901;  -13.980;  559.220
1112.304;    7.195;  -13.880;  547.140
1112.846;    8.234;  -12.210;  666.240
1113.388;    9.989;  -11.390;  942.180
1113.930;    8.420;  -14.540;  694.200
1114.472;    6.608;  -12.640;  606.540
1115.013;    6.429;  -11.620;  551.280
1115.555;    6.777;  -13.640;  587.100
1116.097;    6.401;  -15.380;  579.480
1116.638;    6.634;  -12.640;  684.600
1117.180;    7.453;   -9.850;  667.740
1117.721;    7.571;  -13.690;  568.580
1118.262;    7.326;  -12.680;  677.960
1118.804;    7.034;  -12.530;  637.340
1119.345;    6.191;  -11.690;  578.400
1119.886;    6.673;  -13.380;  704.040
1120.427;    5.649;  -14.070;  589.020
1120.969;    5.717;  -13.500;  597.920
1121.510;    5.396;  -11.480;  563.060
1122.051;    6.288;  -12.830;  723.580
1122.592;    6.115;  -14.290;  655.420
1123.133;    4.591;  -12.400;  547.940
1123.673;    7.259;  -10.130;  706.480
1124.214;    5.603;  -12.930;  612.460
1124.755;    6.439;  -14.380;  639.460
1125.296;    5.547;  -14.000;  627.320
1125.836;    5.802;  -10.070;  691.500
1126.377;    5.569;  -12.640;  599.660
1126.918;    5.411;  -12.960;  614.980
1127.458;    4.726;  -13.350;  622.220
1127.999;    5.500;  -10.750;  656.980
1128.539;    5.716;  -12.350;  694.240
1129.079;    4.689;  -14.860;  632.720
1129.620;    3.751;  -13.840;  558.100
1130.160;    4.047;  -12.330;  539.480
1130.700;    5.106;  -14.530;  640.840
1131.240;    5.349;  -12.530;  643.700
1131.781;    3.936;  -14.450;  619.680
1132.321;    4.470;   -9.790;  599.120
1132.861;    3.779;  -14.860;  564.200
1133.401;    3.466;  -14.290;  593.940
1133.941;    3.894;  -11.750;  626.280
1134.481;    3.825;   -9.920;  597.580
1135.020;    2.460;  -12.290;  609.160
1135.560;    4.020;  -11.650;  674.940
1136.100;    3.501;  -16.270;  501.160
1136.640;    3.097;  -10.890;  510.480
1137.179;    3.089;  -14.180;  537.960
1137.719;    3.554;  -16.250;  605.400
1138.258;    3.711;  -14.230;  587.360
1138.798;    2.995;   -9.090;  663.780
1139.337;    2.683;  -15.130;  482.840
1139.877;    3.624;  -13.680;  642.360
1140.416;    5.032;  -11.320;  878.060
1140.955;    2.630;  -10.860;  535.380
1141.494;    3.174;  -12.920;  669.280
1142.034;    2.408;  -13.930;  583.520
1142.573;    2.964;  -11.440;  646.280
1143.112;    2.131;  -12.000;  553.480
1143.651;    2.774;  -13.670;  536.480
1144.190;    3.569;  -12.730;  691.640
1144.729;    2.871;  -14.560;  607.420
1145.267;    2.079;  -11.830;  584.900
1145.806;    3.123;  -12.230;  637.040
1146.345;    1.681;  -14.130;  635.020
1146.884;    1.539;  -11.590;  622.500
1147.422;    1.371;  -12.550;  533.060
1147.961;    3.057;  -11.180;  708.460
1148.500;    2.650;  -11.510;  669.720
1149.038;    2.674;  -11.640;  632.500
1149.577;    2.506;  -10.130;  698.640
1150.115;    0.339;  -13.970;  452.280
1150.653;    1.589;  -14.520;  607.340
1151.192;    2.096;  -12.810;  552.920
1151.730;    1.792;   -9.100;  652.560
1152.268;    1.658;  -12.220;  589.520
1152.806;    1.358;  -14.140;  571.180
1153.344;    0.471;  -12.350;  577.640
1153.882;    0.911;   -8.980;  600.060
1154.421;    0.395;  -15.190;  470.620
1154.958;    0.526;  -15.210;  595.240
1155.496;    1.581;  -12.850;  645.280
1156.034;    1.620;   -9.940;  721.880
1156.572;    2.387;  -13.570;  667.060
1157.110;    0.324;  -14.590;  473.940
1157.647;    0.765;  -13.030;  676.960
1158.185;    0.331;  -12.140;  564.320
1158.723;   -0.111;  -14.390;  509.200
1159.260;    1.091;  -14.090;  701.700
1159.798;    1.027;  -11.920;  658.160
1160.335;   -0.128;  -11.110;  631.820

