
Integration time [ms]:   3.276
Averaging Nr. [scans]: 1000
Smoothing Nr. [pixels]: 0
Data measured with spectrometer [name]: 7414430SP
Wave   ;Sample   ;Dark     ;Reference
[nm]   ;[counts] ;[counts] ;[counts] 

288.544;  150.194;    7.793;  793.890
289.143;  154.289;    7.462;  681.602
289.742;  154.225;    8.602;  828.814
290.341;  139.507;    1.321;  789.841
290.940;  128.058;   -0.709;  730.702
291.538;  130.595;    0.881;  881.108
292.137;  130.109;    0.122;  792.581
292.736;  134.067;   -1.929;  975.101
293.335;  130.401;   -8.229;  735.086
293.934;  130.546;   -5.279;  781.677
294.532;  129.239;   -1.369; 1031.958
295.131;  114.785;   -7.641;  834.394
295.730;  115.351;   -8.420;  809.588
296.328;  114.697;   -5.611;  783.442
296.927;  115.468;   -5.781;  779.652
297.525;  116.582;   -6.361;  781.236
298.124;  106.908;  -11.382;  654.009
298.722;  110.811;   -7.641;  761.933
299.321;  109.047;   -6.811;  708.597
299.919;  106.368;   -6.991;  751.918
300.518;  103.347;  -10.362;  689.338
301.116;  105.513;   -9.581;  691.381
301.715;  104.353;   -4.891;  730.222
302.313;  103.439;   -8.801;  704.943
302.911;   99.613;   -8.522;  733.830
303.509;  104.805;   -6.171;  925.627
304.108;  103.208;   -7.311;  760.383
304.706;  101.952;   -8.321;  801.664
305.304;   96.465;  -10.222;  796.707
305.902;  102.297;   -6.021;  784.484
306.500;   97.125;   -4.971;  728.200
307.098;   95.547;   -7.061;  746.560
307.696;   93.375;   -8.801;  780.432
308.294;   94.472;   -6.411;  731.359
308.892;   96.907;   -2.901;  759.769
309.490;   92.085;   -5.041;  712.161
310.088;   91.310;   -5.002;  788.444
310.686;   95.338;   -2.041;  821.749
311.284;   90.181;   -2.351;  766.040
311.882;   88.407;   -4.422;  731.225
312.480;   86.075;   -4.192;  697.167
313.078;   88.230;   -1.172;  808.331
313.675;   87.711;   -2.601;  691.600
314.273;   83.106;   -1.312;  797.837
314.871;   82.927;   -3.942;  589.829
315.468;   80.106;   -2.802;  652.090
316.066;   83.085;   -0.701;  694.427
316.664;   76.282;   -4.362;  656.351
317.261;   79.137;   -2.872;  910.128
317.859;   75.954;   -2.022;  768.735
318.456;   76.764;   -0.531;  830.096
319.054;   71.834;   -3.912;  787.828
319.651;   70.449;   -4.752;  759.928
320.249;   70.394;   -2.602;  810.188
320.846;   68.389;   -0.821;  714.286
321.443;   64.766;   -4.642;  832.135
322.041;   61.883;   -5.002;  812.315
322.638;   60.606;   -3.982;  701.456
323.235;   61.343;   -3.411;  665.683
323.833;   58.677;   -7.361;  740.354
324.430;   54.083;   -8.611;  615.900
325.027;   54.868;   -4.061;  876.855
325.624;   54.969;   -4.031;  644.532
326.221;   52.040;   -7.481;  689.717
326.818;   51.022;   -5.281;  818.332
327.415;   55.581;   -7.460;  748.828
328.012;   53.782;   -5.510;  690.585
328.609;   51.869;   -7.880;  731.389
329.206;   50.584;   -8.331;  778.621
329.803;   51.138;   -5.121;  737.841
330.400;   53.946;   -4.510;  704.260
330.997;   54.940;   -6.441;  817.147
331.594;   53.758;   -8.831;  788.185
332.191;   59.710;   -7.621;  728.722
332.787;   61.812;   -4.591;  844.463
333.384;   59.657;   -7.412;  763.093
333.981;   58.420;   -8.293;  815.687
334.578;   61.961;   -7.052;  708.378
335.174;   65.389;   -3.102;  731.469
335.771;   63.321;   -5.943;  836.456
336.367;   60.551;   -7.393;  710.631
336.964;   64.865;   -4.063;  793.266
337.561;   62.699;   -3.813;  731.112
338.157;   58.013;   -4.654;  911.916
338.754;   56.078;   -7.934;  796.589
339.350;   54.896;   -4.414;  722.493
339.946;   55.706;   -4.664;  773.135
340.543;   48.434;   -6.375;  846.136
341.139;   42.505;   -9.815;  720.836
341.735;   41.228;   -4.526;  772.593
342.332;   39.517;   -4.895;  691.472
342.928;   39.416;   -4.295;  795.394
343.524;   33.726;   -5.476;  761.684
344.120;   31.047;   -5.856;  738.562
344.716;   33.319;   -2.155;  723.717
345.313;   31.416;   -6.275;  795.342
345.909;   26.114;   -8.815;  627.336
346.505;   28.223;   -5.305;  740.247
347.101;   29.327;   -2.674;  827.864
347.697;   28.052;   -4.344;  785.398
348.293;   23.696;   -9.975;  627.244
348.889;   24.900;   -5.774;  745.914
349.485;   24.330;   -5.004;  688.205
350.081;   23.773;   -4.704;  772.592
350.676;   19.462;   -6.635;  691.606
351.272;   24.763;   -4.504;  809.530
351.868;   23.545;   -3.914;  780.497
352.464;   20.998;   -9.044;  723.932
353.059;   16.786;   -8.314;  646.017
353.655;   20.081;   -7.024;  777.063
354.251;   22.283;   -5.343;  759.845
354.846;   16.368;   -8.604;  740.646
355.442;   13.407;   -6.945;  753.071
356.038;   16.022;   -7.564;  751.708
356.633;   16.261;   -5.814;  728.594
357.229;   13.860;   -7.364;  724.757
357.824;   12.305;   -8.024;  703.600
358.420;   11.526;   -9.384;  679.726
359.015;   12.338;   -5.104;  695.357
359.610;   12.822;   -6.854;  763.920
360.206;    6.900;  -10.185;  603.240
360.801;   10.001;   -7.054;  646.503
361.396;   12.963;   -5.034;  725.975
361.992;    7.777;   -8.284;  668.220
362.587;    4.982;   -8.625;  670.160
363.182;    7.782;   -7.674;  689.631
363.777;    7.672;   -5.164;  738.242
364.372;    6.338;   -8.604;  737.314
364.967;    3.442;   -9.055;  680.744
365.563;    8.355;   -6.114;  815.567
366.158;    5.309;   -5.814;  685.161
366.753;    5.322;   -7.854;  649.263
367.348;    3.636;   -7.804;  746.056
367.942;    3.462;   -7.954;  697.298
368.537;    3.122;   -4.984;  754.245
369.132;    3.054;   -8.564;  703.428
369.727;   -1.033;   -8.855;  638.079
370.322;    1.156;   -6.245;  580.186
370.917;    0.334;   -6.425;  710.646
371.511;    3.351;   -6.294;  861.834
372.106;   -1.062;   -7.685;  776.964
372.701;   -2.846;   -7.335;  585.988
373.296;    2.511;   -4.564;  863.135
373.890;   -3.290;  -10.235;  647.840
374.485;   -4.520;   -7.885;  691.199
375.079;   -1.124;   -7.324;  738.685
375.674;    0.204;   -3.494;  812.970
376.268;   -4.101;   -8.525;  691.759
376.863;   -9.955;  -10.086;  580.327
377.457;   -3.167;   -7.025;  662.490
378.052;   -5.138;   -3.585;  764.884
378.646;   -6.594;   -7.595;  741.167
379.240;   -6.686;   -8.335;  721.176
379.835;   -5.214;   -5.785;  636.978
380.429;   -6.764;   -4.335;  562.557
381.023;   -8.286;   -6.805;  779.205
381.617;  -10.095;   -9.195;  680.106
382.212;   -5.866;   -6.905;  685.303
382.806;   -5.523;   -3.745;  760.690
383.400;  -10.439;   -7.745;  672.281
383.994;  -10.416;   -9.765;  664.870
384.588;   -6.190;   -6.564;  697.701
385.182;   -5.685;   -5.344;  726.624
385.776;   -7.527;   -8.514;  706.875
386.370;  -10.924;   -9.555;  681.968
386.964;   -8.384;   -8.715;  684.155
387.558;   -7.023;   -6.174;  598.360
388.152;  -11.666;   -8.725;  681.959
388.745;   -8.971;   -7.965;  814.707
389.339;   -6.165;   -5.924;  747.642
389.933;   -6.465;   -5.524;  695.370
390.527;   -8.116;   -7.114;  859.029
391.120;  -13.578;  -10.725;  595.318
391.714;  -10.589;   -8.035;  711.633
392.308;   -6.959;   -3.574;  780.253
392.901;  -11.440;   -7.245;  642.460
393.495;  -12.813;   -9.285;  595.414
394.089;  -10.392;   -5.895;  760.452
394.682;  -11.428;   -4.295;  697.188
395.275;  -12.925;   -9.875;  719.927
395.869;  -13.130;   -8.485;  667.314
396.462;  -10.844;   -7.455;  616.609
397.056;   -7.366;   -5.424;  776.621
397.649;  -12.662;   -6.605;  731.575
398.242;  -10.571;   -8.224;  712.645
398.836;   -9.129;   -7.474;  766.408
399.429;  -10.444;   -7.094;  631.041
400.022;  -14.322;   -9.475;  665.902
400.615;  -10.841;   -7.145;  805.609
401.208;   -8.447;   -7.174;  691.451
401.802;  -11.778;   -5.515;  699.329
402.395;  -12.703;   -9.875;  683.502
402.988;  -13.313;   -8.845;  696.627
403.581;  -10.453;   -8.874;  646.878
404.174;   -7.840;   -5.324;  686.568
404.767;  -11.351;   -9.575;  638.583
405.360;  -13.189;  -10.965;  621.445
405.953;   -7.770;   -8.764;  759.034
406.545;   -7.057;   -7.514;  725.342
407.138;  -12.127;  -10.025;  618.350
407.731;  -10.276;  -10.034;  613.303
408.324;   -6.188;   -9.374;  660.554
408.917;   -6.683;   -6.534;  681.864
409.509;   -9.862;   -8.004;  740.396
410.102;  -11.129;   -9.875;  643.948
410.695;   -4.882;   -8.604;  665.758
411.287;   -6.250;   -6.794;  599.821
411.880;   -7.732;   -9.334;  585.421
412.472;  -10.591;  -10.254;  613.092
413.065;   -6.990;   -6.714;  629.408
413.657;   -4.576;   -7.234;  576.678
414.250;   -5.070;  -10.544;  646.681
414.842;   -6.328;   -9.744;  676.353
415.434;   -4.458;   -6.994;  570.463
416.027;   -0.164;   -5.893;  652.196
416.619;   -2.709;   -7.264;  713.400
417.211;   -3.537;  -10.374;  599.352
417.804;    0.786;   -7.993;  628.499
418.396;   -2.575;   -7.234;  607.643
418.988;   -1.549;   -9.443;  659.238
419.580;   -4.710;  -10.724;  568.276
420.172;   -1.712;  -10.323;  536.196
420.764;    1.458;   -8.793;  672.482
421.356;    0.839;  -11.143;  636.898
421.948;   -0.445;   -8.293;  677.661
422.540;    5.093;   -7.893;  680.027
423.132;    4.755;   -7.082;  600.641
423.724;    0.633;   -8.653;  561.267
424.316;    2.571;  -10.213;  621.345
424.908;    6.627;   -9.762;  591.517
425.500;    7.544;   -5.572;  647.978
426.092;    7.822;   -8.422;  648.268
426.683;    6.344;   -9.283;  684.836
427.275;    9.985;   -7.852;  641.471
427.867;   10.984;   -5.272;  668.948
428.458;   10.943;   -7.682;  732.344
429.050;   10.353;  -10.612;  680.749
429.642;   12.956;   -9.882;  743.124
430.233;   12.922;   -6.962;  569.356
430.825;   13.516;   -6.842;  724.809
431.416;   11.183;   -9.672;  698.241
432.008;   15.114;   -6.552;  651.723
432.599;   15.505;   -6.891;  656.073
433.190;   12.536;  -10.912;  637.670
433.782;   11.994;  -11.172;  590.395
434.373;   20.116;   -6.061;  884.765
434.964;   17.708;   -8.251;  602.920
435.556;   15.494;   -9.722;  634.537
436.147;   18.633;   -9.082;  758.490
436.738;   19.002;   -8.041;  701.099
437.329;   24.284;   -7.341;  721.723
437.920;   17.074;   -8.162;  666.688
438.511;   16.700;  -11.802;  564.526
439.103;   23.207;  -10.191;  623.998
439.694;   25.423;   -7.601;  681.583
440.285;   25.652;   -8.541;  764.432
440.876;   23.589;   -9.751;  845.738
441.466;   24.350;   -9.401;  575.162
442.057;   29.699;   -7.760;  665.814
442.648;   28.055;   -9.971;  746.255
443.239;   25.672;  -11.001;  620.477
443.830;   31.779;   -7.990;  704.958
444.421;   33.782;   -7.910;  655.474
445.011;   29.398;   -8.131;  693.619
445.602;   29.793;   -7.111;  743.126
446.193;   31.192;  -10.920;  488.117
446.783;   36.522;   -6.500;  640.397
447.374;   30.941;   -8.671;  692.759
447.964;   31.767;  -10.781;  713.770
448.555;   40.711;   -9.650;  822.742
449.145;   37.367;   -8.660;  662.853
449.736;   37.319;   -8.990;  803.179
450.326;   37.514;   -9.500;  713.626
450.917;   43.046;   -8.680;  675.324
451.507;   41.799;   -7.520;  600.661
452.097;   42.881;   -8.590;  746.267
452.688;   43.146;  -11.340;  742.160
453.278;   43.626;  -10.100;  566.840
453.868;   47.418;   -6.019;  793.550
454.458;   45.582;   -9.440;  651.141
455.048;   46.118;  -10.560;  711.783
455.639;   48.420;  -11.799;  567.096
456.229;   51.856;   -6.899;  710.694
456.819;   53.341;   -7.389;  751.158
457.409;   53.153;  -11.119;  773.993
457.999;   56.421;   -9.289;  737.505
458.589;   56.937;   -6.139;  686.606
459.179;   56.671;   -8.729;  717.658
459.769;   54.273;   -9.789;  627.099
460.358;   59.548;  -10.259;  797.262
460.948;   59.553;   -7.299;  689.503
461.538;   61.190;  -10.289;  660.677
462.128;   59.236;  -11.269;  664.934
462.717;   65.772;   -9.368;  710.326
463.307;   68.522;   -7.908;  705.846
463.897;   63.118;   -9.599;  656.942
464.486;   63.627;   -9.769;  837.128
465.076;   68.306;   -8.048;  733.776
465.666;   72.683;   -9.358;  652.900
466.255;   69.655;   -7.919;  785.651
466.845;   68.769;  -11.689;  666.749
467.434;   72.371;   -7.818;  725.873
468.023;   72.523;   -7.678;  658.357
468.613;   70.213;  -10.939;  713.946
469.202;   75.198;  -10.118;  646.507
469.791;   79.069;   -9.108;  737.811
470.381;   81.045;   -6.058;  742.813
470.970;   80.439;  -10.428;  711.099
471.559;   79.894;  -10.268;  733.291
472.148;   84.541;   -8.448;  675.737
472.738;   86.623;   -6.917;  765.466
473.327;   85.790;  -11.978;  637.529
473.916;   85.467;  -11.888;  737.446
474.505;   90.538;   -9.437;  751.703
475.094;   93.598;   -6.747;  806.570
475.683;   91.651;   -9.367;  797.699
476.272;   93.835;  -12.637;  730.632
476.861;   96.499;  -10.027;  706.754
477.449;  103.601;   -8.716;  728.487
478.038;   97.235;   -9.577;  692.513
478.627;   98.423;   -9.718;  714.852
479.216;  105.798;   -8.947;  769.441
479.805;  109.162;   -6.256;  783.375
480.393;  107.870;   -7.937; 1008.945
480.982;  106.981;   -7.717;  874.501
481.571;  113.653;   -9.266;  858.333
482.159;  114.612;   -7.636;  705.386
482.748;  114.193;   -9.667;  821.385
483.336;  118.115;  -10.376;  858.209
483.925;  119.930;   -7.147;  774.373
484.513;  127.074;   -7.996;  758.962
485.102;  123.467;  -10.027;  810.965
485.690;  132.658;  -10.446; 1011.050
486.278;  134.623;   -8.446;  979.329
486.867;  135.485;   -6.356;  809.662
487.455;  137.077;   -9.136;  898.229
488.043;  137.923;  -10.646;  748.361
488.631;  148.070;   -7.456; 1005.079
489.220;  150.983;   -6.636;  908.626
489.808;  151.717;  -11.036;  741.415
490.396;  159.827;  -10.246;  914.645
490.984;  166.330;   -8.556;  830.161
491.572;  177.351;   -5.886;  940.315
492.160;  182.636;   -9.486;  919.081
492.748;  196.538;  -10.976;  884.341
493.336;  219.899;   -8.776; 1019.693
493.924;  249.173;   -5.465;  958.077
494.512;  278.154;   -9.986; 1066.638
495.100;  319.738;  -10.636; 1103.280
495.687;  377.252;  -10.885; 1206.373
496.275;  445.794;   -8.126; 1150.796
496.863;  520.901;  -10.586; 1281.171
497.451;  630.947;  -11.926; 1386.805
498.038;  769.524;  -10.885; 1556.729
498.626;  880.660;   -6.315; 1741.407
499.214; 1033.557;   -7.326; 2016.609
499.801; 1243.954;  -11.906; 2220.633
500.389; 1505.084;  -10.466; 2312.494
500.976; 1836.138;   -5.236; 2744.849
501.564; 2302.467;   -8.936; 3148.565
502.151; 2702.565;  -13.176; 3515.999
502.738; 3181.304;  -10.646; 3971.274
503.326; 3587.691;   -9.525; 4403.796
503.913; 3980.815;  -10.856; 5161.749
504.500; 4365.294;  -11.586; 5986.420
505.088; 4792.081;  -10.336; 6381.201
505.675; 5357.844;   -6.355; 6925.547
506.262; 6120.841;   -9.046; 7619.060
506.849; 6867.327;  -10.416; 8733.969
507.436; 7342.446;  -10.305; 9790.121
508.023; 7950.294;   -5.496; 9985.472
508.610; 8242.804;   -7.856;10434.618
509.197; 8933.188;  -10.097;11198.435
509.784;10399.253;  -10.886;12391.194
510.371;11491.476;   -9.315;13603.713
510.958;12269.870;   -9.936;14426.586
511.545;13109.972;   -9.326;15243.775
512.132;14090.738;  -10.075;15945.876
512.719;14712.337;   -7.796;16340.369
513.305;15680.295;  -10.606;18011.766
513.892;16436.141;  -11.486;19754.971
514.479;17837.568;   -9.126;20967.805
515.066;19448.426;   -6.026;22299.793
515.652;20769.080;   -8.466;22908.660
516.239;22241.867;  -10.886;23798.875
516.825;23492.063;  -11.496;25567.275
517.412;24610.977;   -5.796;28154.959
517.998;25154.604;  -10.506;28344.111
518.585;25190.461;  -10.076;27134.219
519.171;25799.455;   -8.315;27268.576
519.758;27301.348;   -8.596;28964.129
520.344;29237.100;   -8.466;30664.494
520.930;29405.520;  -11.006;32550.605
521.516;31054.254;  -10.495;35422.895
522.103;33594.879;   -5.526;38280.004
522.689;34182.945;   -8.746;37835.117
523.275;33606.605;  -11.376;37288.613
523.861;34857.922;  -11.156;37281.395
524.447;36222.465;   -8.135;37846.949
525.033;35894.191;   -7.896;38321.949
525.619;36116.020;  -12.476;38579.285
526.205;37954.055;   -9.516;40622.875
526.791;40340.527;   -6.926;42258.836
527.377;40626.832;   -8.346;42966.902
527.963;42317.035;   -8.717;42018.949
528.549;40547.977;  -11.016;42476.828
529.135;39306.277;   -8.536;41854.852
529.721;38816.902;   -9.666;41237.711
530.306;38129.754;  -10.066;41259.445
530.892;37894.664;  -11.356;41506.047
531.478;39371.758;   -6.596;43559.613
532.063;42371.391;   -8.836;47695.563
532.649;42653.945;  -10.047;50808.324
533.235;43767.816;   -9.746;51787.500
533.820;44623.594;   -6.566;52145.035
534.406;46201.844;  -10.817;51133.488
534.991;46047.730;   -9.416;49996.805
535.576;44504.766;   -9.036;48882.852
536.162;44915.105;   -6.156;46942.285
536.747;45902.906;  -11.607;45711.746
537.333;50159.762;  -11.787;48510.180
537.918;53064.020;  -12.437;50439.891
538.503;51346.734;   -7.196;50863.711
539.088;47968.711;  -10.556;50906.922
539.673;47859.402;   -8.767;52621.965
540.259;47645.988;  -10.026;52368.094
540.844;44891.348;   -7.416;50879.109
541.429;46043.973;   -9.467;52077.777
542.014;49121.875;   -9.527;52716.695
542.599;48596.352;   -9.946;52363.281
543.184;46421.531;   -7.927;53187.137
543.769;48017.098;   -9.297;54697.605
544.354;47176.316;  -10.127;53913.914
544.938;45764.391;   -9.267;49680.164
545.523;47691.953;   -6.506;47386.277
546.108;50316.238;   -9.787;49151.949
546.693;52532.465;  -11.587;51384.637
547.278;52179.875;  -10.986;51853.254
547.862;49109.652;   -8.206;51173.750
548.447;44551.309;  -10.067;51691.395
549.031;44098.371;   -9.637;52456.703
549.616;49195.113;   -9.926;52714.516
550.201;48271.691;   -6.347;52414.598
550.785;49443.426;   -7.917;52355.059
551.370;48562.574;  -10.867;54589.453
551.954;48267.512;   -9.047;58267.348
552.538;49124.898;   -7.827;59062.176
553.123;47518.020;  -10.287;58115.285
553.707;45278.840;  -12.178;56556.285
554.291;46412.410;   -8.717;56201.668
554.876;48477.770;   -7.457;55335.762
555.460;48902.145;  -10.387;54155.703
556.044;50287.559;   -9.618;53721.484
556.628;48860.172;  -11.567;53731.016
557.212;47434.098;   -8.097;54312.531
557.796;45846.191;  -11.077;53797.773
558.380;45700.680;  -11.108;56145.984
558.964;45946.109;   -9.057;57277.930
559.548;47089.801;   -6.977;56459.641
560.132;45463.785;  -11.457;54434.543
560.716;44219.816;  -11.378;54800.617
561.300;45330.367;   -9.577;57606.945
561.884;46333.176;   -7.127;58972.445
562.467;44878.574;   -7.118;57327.570
563.051;44278.711;  -13.358;54962.434
563.635;45245.340;  -10.178;52594.473
564.219;45291.980;   -7.837;50610.410
564.802;46128.434;  -11.398;49551.180
565.386;46210.387;  -12.788;48370.953
565.969;45630.234;   -9.077;48178.871
566.553;45042.262;   -6.207;49957.305
567.136;45292.082;   -8.568;50369.594
567.720;41418.859;  -11.868;49492.004
568.303;39266.605;   -8.268;50616.352
568.887;39412.336;   -8.698;50727.148
569.470;39599.102;   -6.808;51698.379
570.053;38206.246;  -13.188;52122.078
570.637;36718.945;  -12.037;52536.438
571.220;36473.590;   -8.577;51186.098
571.803;37071.070;   -8.498;51032.762
572.386;39596.043;  -10.498;49609.887
572.969;42036.695;   -9.388;48285.926
573.552;39789.031;   -8.338;47624.285
574.135;38370.645;   -8.518;45498.641
574.718;35879.707;  -13.628;41970.434
575.301;34834.055;  -10.893;41447.137
575.884;33788.398;   -8.158;40923.836
576.467;35059.973;  -10.328;45267.723
577.050;37274.199;  -13.058;48175.543
577.633;38775.258;   -9.458;47729.328
578.216;37651.219;   -8.928;47579.793
578.799;36668.695;   -9.358;47820.996
579.381;35456.262;  -11.388;48115.551
579.964;33779.063;  -11.718;47333.766
580.547;35482.840;   -8.588;46668.969
581.129;36658.629;   -8.859;44466.141
581.712;37326.855;  -10.729;44164.922
582.294;37944.102;  -11.118;46477.855
582.877;37829.090;   -5.218;48244.254
583.459;35156.684;   -8.679;47437.895
584.042;33304.508;  -10.709;46943.219
584.624;34140.105;  -11.669;46792.227
585.206;33482.031;   -8.218;46557.250
585.789;33469.082;  -10.569;45793.773
586.371;36361.133;  -11.859;43836.391
586.953;36866.488;  -10.719;42972.492
587.536;38175.434;   -7.198;42487.211
588.118;38037.117;   -8.720;42086.414
588.700;34612.887;  -10.439;43389.930
589.282;33762.348;   -9.198;43646.039
589.864;34415.332;   -9.199;43438.109
590.446;35307.117;  -11.319;43151.926
591.028;35300.520;  -11.159;42781.867
591.610;34375.055;  -11.779;42839.098
592.192;31906.857;   -7.668;42820.402
592.774;30447.463;  -11.949;40724.277
593.356;29136.654;  -12.129;39874.789
593.937;28068.852;  -10.669;39980.648
594.519;30173.561;   -6.509;42069.633
595.101;32485.107;  -10.849;42976.031
595.683;32582.496;  -11.679;44084.441
596.264;33751.262;   -9.049;43478.797
596.846;33091.988;   -8.849;43803.672
597.427;32880.168;   -9.570;42986.934
598.009;34554.852;  -12.620;42832.219
598.591;34904.527;  -10.039;42580.086
599.172;33948.531;  -10.369;43061.805
599.753;34009.344;   -9.140;41691.469
600.335;35547.859;  -11.430;40692.520
600.916;33913.469;   -9.939;39982.422
601.498;31408.500;   -8.479;40318.617
602.079;29895.176;  -10.920;40670.609
602.660;29907.984;  -11.480;41450.898
603.241;31560.766;  -11.699;41137.738
603.823;30336.801;   -9.579;38868.797
604.404;30031.828;  -10.620;38182.785
604.985;31508.379;  -10.450;38078.047
605.566;31177.514;   -9.129;38056.633
606.147;31270.729;   -7.510;37020.418
606.728;32982.773;  -10.660;37883.359
607.309;31740.924;  -11.740;38748.273
607.890;31117.969;   -9.759;38850.230
608.471;30492.086;   -8.250;37457.918
609.051;29514.094;   -9.240;36066.457
609.632;28520.428;  -12.120;35991.074
610.213;29419.779;   -9.110;37402.641
610.794;30034.832;   -8.030;38383.363
611.374;29444.914;   -8.110;40562.387
611.955;29777.623;  -13.560;38533.727
612.536;31088.020;  -11.400;36951.789
613.116;31209.203;   -8.070;37197.891
613.697;31583.959;  -10.830;38411.125
614.277;30112.521;  -11.641;38673.938
614.858;30989.793;  -13.310;37075.863
615.438;29961.633;   -7.460;35092.906
616.019;27145.668;   -7.601;33666.301
616.599;27949.357;  -12.020;34189.023
617.179;29751.291;  -11.780;36952.047
617.760;30611.277;   -8.570;39582.574
618.340;31785.584;  -11.471;38943.977
618.920;33206.902;  -11.170;37594.156
619.500;32984.973;  -11.071;37866.938
620.080;32126.406;   -7.750;37869.043
620.660;33297.320;  -12.711;36868.617
621.241;34622.238;  -10.211;36352.309
621.821;34734.164;  -10.961;35459.520
622.401;33666.184;   -7.720;35207.414
622.980;32921.652;   -8.981;35980.422
623.560;31510.908;   -9.331;37351.328
624.140;30371.416;   -9.850;34388.582
624.720;25081.693;   -7.451;32368.764
625.300;21482.182;   -9.070;32638.629
625.880;24951.201;  -12.601;34599.035
626.459;28997.287;  -11.751;36831.738
627.039;32170.072;   -9.281;38299.098
627.619;32151.816;   -8.801;38289.574
628.198;30443.092;  -12.071;37220.695
628.778;29602.848;   -9.461;37632.563
629.357;30405.564;   -8.491;38003.012
629.937;30492.680;   -9.721;38402.039
630.516;29820.074;   -9.951;37868.801
631.096;29387.131;  -11.731;35760.410
631.675;32224.570;   -8.572;35225.219
632.254;37406.504;  -11.282;35130.289
632.834;36904.168;  -13.322;35794.570
633.413;34968.809;  -10.301;35788.922
633.992;31949.980;   -8.582;34532.863
634.571;32665.717;   -8.352;33590.113
635.151;35747.125;  -11.912;34943.863
635.730;34174.121;  -10.511;35352.523
636.309;30700.664;   -7.731;35366.605
636.888;28210.920;   -9.952;36165.637
637.467;29110.207;  -11.672;37515.902
638.046;30779.070;   -8.901;39288.695
638.625;33852.031;   -7.912;38279.699
639.204;33613.016;  -10.022;37741.598
639.782;32092.857;  -12.252;38364.551
640.361;28345.500;  -10.041;36740.621
640.940;25414.512;  -11.161;34950.082
641.519;26004.896;   -9.701;34137.398
642.097;29102.164;  -11.271;35654.258
642.676;32094.453;   -8.651;35637.957
643.255;32539.211;   -8.711;36567.074
643.833;31633.967;   -9.581;37809.434
644.412;31778.980;  -13.711;37337.293
644.990;30921.701;  -11.811;37018.531
645.569;30954.348;   -9.411;36518.469
646.147;29671.789;  -10.291;36186.430
646.726;29140.879;  -12.401;36267.688
647.304;30350.455;  -10.411;36647.625
647.882;32391.201;   -9.651;39286.742
648.461;34172.574;   -9.631;39157.703
649.039;32305.828;  -11.881;35412.883
649.617;31772.271;   -9.661;34744.918
650.195;31558.906;   -9.301;35403.098
650.773;30043.223;  -10.511;35053.797
651.352;27546.824;  -11.521;33756.816
651.930;25118.479;  -12.211;31868.773
652.508;23529.236;   -9.171;33121.551
653.086;27472.662;   -9.371;33564.793
653.663;30236.936;  -13.161;34054.668
654.241;29132.641;  -13.031;35693.309
654.819;30871.742;   -9.371;36422.906
655.397;31125.447;  -10.511;38213.484
655.975;30931.438;  -10.371;39507.625
656.553;30580.279;  -10.051;39498.223
657.130;28938.082;  -10.061;40395.480
657.708;28270.549;   -9.561;39242.020
658.286;28312.904;  -11.511;38920.020
658.863;29516.074;  -10.261;40202.898
659.441;32463.773;   -7.531;39677.938
660.018;31877.734;   -9.501;40413.355
660.596;30842.988;  -13.301;39931.414
661.173;33034.816;  -11.211;39604.531
661.750;33185.961;   -9.951;39700.070
662.328;31818.086;   -9.390;39292.809
662.905;30729.879;  -11.330;38235.648
663.482;26366.961;   -9.050;36212.305
664.060;24448.314;   -8.240;35944.945
664.637;27330.715;  -10.050;35170.785
665.214;29220.484;  -11.760;34197.523
665.791;30552.115;  -10.530;34549.520
666.368;29422.400;   -9.690;35118.578
666.945;30357.521;   -9.320;36019.418
667.522;31923.736;  -11.860;36048.438
668.099;31610.322;  -10.770;36243.914
668.676;30541.314;   -6.260;35958.875
669.253;29196.887;   -7.000;37384.730
669.830;29907.951;  -10.190;36779.629
670.407;29617.123;   -9.550;35231.289
670.984;29548.584;   -9.260;35544.270
671.560;30080.227;   -9.280;35466.867
672.137;29148.375;  -11.810;34280.863
672.714;29896.189;  -11.490;34632.863
673.290;30441.861;   -7.740;35135.422
673.867;30666.766;  -10.660;36114.480
674.443;30502.201;  -12.230;36152.859
675.020;28887.701;  -10.450;35327.238
675.596;29975.422;   -9.260;35795.176
676.173;30388.070;  -10.780;35430.355
676.749;30156.613;  -13.690;33549.516
677.326;30148.059;  -11.980;32210.012
677.902;30085.918;   -8.630;32068.871
678.478;29360.764;  -10.730;32583.891
679.054;28829.486;  -10.520;32088.928
679.631;29089.604;  -11.920;30978.848
680.207;30780.678;   -7.490;33160.887
680.783;32576.406;   -9.860;35570.363
681.359;31677.232;  -13.380;36125.184
681.935;30839.074;  -12.480;35240.922
682.511;29746.695;   -7.900;34429.961
683.087;29775.131;   -7.710;34463.680
683.663;29490.865;  -11.480;34648.898
684.239;28320.402;  -14.090;34546.457
684.815;27968.443;   -7.560;35586.375
685.390;28342.186;   -9.910;35821.895
685.966;28917.680;  -11.159;35085.871
686.542;31497.754;  -11.169;34198.230
687.118;33379.156;   -5.959;32847.707
687.693;33447.145;  -10.329;32794.027
688.269;33230.777;  -12.059;33072.367
688.844;31484.961;  -10.909;33141.664
689.420;29215.633;   -8.019;33965.742
689.995;26791.010;   -8.399;34655.523
690.571;25449.180;  -10.949;33576.742
691.146;26023.033;   -9.619;32657.219
691.722;25475.424;   -8.999;32526.979
692.297;25479.285;  -11.589;33014.617
692.872;27476.045;  -11.739;34012.254
693.448;26961.205;  -11.059;34237.434
694.023;26117.188;  -10.139;34142.672
694.598;28074.707;   -9.029;34132.031
695.173;28352.711;  -13.319;34205.250
695.748;27718.633;  -10.169;32882.488
696.323;27859.863;   -8.339;32864.906
696.898;28201.166;   -8.169;33170.004
697.473;27906.592;  -12.309;32432.984
698.048;27279.586;  -10.989;31649.303
698.623;27327.256;   -9.329;30778.141
699.198;29356.865;   -9.849;31140.119
699.773;30100.178;  -12.329;31764.299
700.348;28319.926;  -10.389;31780.816
700.922;28236.451;   -9.269;32046.375
701.497;28896.967;   -9.329;32603.574
702.072;29087.139;  -10.789;34799.871
702.646;27879.039;  -10.839;35793.172
703.221;25934.105;   -9.099;35201.590
703.795;28109.125;  -10.939;34764.527
704.370;28475.811;  -12.859;34307.367
704.944;28798.133;  -11.559;33509.887
705.519;29695.592;   -7.939;31388.584
706.093;31233.039;  -10.499;31340.104
706.668;31493.768;  -11.289;32630.281
707.242;30441.598;  -11.509;32728.779
707.816;28853.416;   -9.639;32947.238
708.390;27275.600;  -11.429;33277.855
708.965;27810.721;  -11.869;33834.336
709.539;27908.410;  -11.689;33709.273
710.113;28468.592;  -10.478;33044.313
710.687;27901.053;  -10.228;31953.992
711.261;26214.121;  -13.698;30505.949
711.835;26115.111;  -13.378;30262.369
712.409;26973.234;   -9.698;31254.447
712.983;28787.672;  -11.898;32754.986
713.557;29647.627;  -15.138;34018.824
714.131;29109.023;  -14.098;34579.625
714.704;28101.154;   -9.958;33890.262
715.278;25941.270;  -10.028;33531.102
715.852;25073.496;  -11.148;33601.660
716.425;25938.984;   -9.068;33515.117
716.999;26543.717;  -10.038;33185.555
717.573;27502.008;   -9.798;33905.996
718.146;28675.104;  -12.378;35199.293
718.720;28601.822;  -11.918;35060.551
719.293;27979.699;   -8.088;34973.230
719.867;30807.205;  -10.888;36394.449
720.440;30493.311;  -11.938;36663.008
721.013;28744.521;  -12.818;35102.426
721.587;27437.781;  -10.298;33985.266
722.160;26619.148;  -10.048;33524.965
722.733;25582.422;  -12.108;32987.043
723.306;25889.592;  -10.818;33066.301
723.880;28209.076;   -8.908;33399.500
724.453;29879.639;   -9.878;33468.297
725.026;28830.211;  -11.188;33816.637
725.599;26351.412;  -11.678;32797.996
726.172;26966.588;   -9.618;33187.434
726.745;28071.883;   -8.258;35136.613
727.318;29340.768;  -12.978;35751.730
727.891;29678.658;  -12.148;35890.430
728.463;29402.127;   -8.968;34822.090
729.036;28531.217;  -10.188;32895.086
729.609;28873.754;  -11.788;31823.225
730.182;25826.055;  -11.788;31445.283
730.754;23266.666;  -10.268;32373.223
731.327;23169.223;   -9.998;33676.820
731.900;23590.988;  -12.228;33417.000
732.472;25091.033;  -13.848;31978.498
733.045;26967.258;   -8.698;30368.777
733.617;27049.832;  -10.607;30574.215
734.190;26560.133;  -11.507;31280.975
734.762;23663.947;  -13.647;31674.412
735.334;22048.098;   -9.767;31247.291
735.907;22662.785;   -9.897;29876.211
736.479;22720.096;  -11.637;29808.488
737.051;22388.391;   -9.567;30233.547
737.623;23315.271;   -8.187;31469.086
738.195;24219.219;  -11.187;31784.225
738.768;26199.977;  -12.337;32120.523
739.340;26189.973;  -12.227;32094.342
739.912;24852.330;  -11.057;31312.680
740.484;23434.445;  -10.207;31946.238
741.056;22473.574;  -10.047;32984.059
741.628;24343.607;  -13.627;33897.715
742.199;26525.400;   -7.177;33213.016
742.771;24833.434;  -10.797;31369.113
743.343;22514.072;  -11.997;31865.473
743.915;21583.367;  -12.867;32388.631
744.487;21785.725;   -7.617;31079.568
745.058;21990.752;   -9.557;30570.107
745.630;22467.342;   -9.877;29970.127
746.201;23193.555;  -14.177;29186.766
746.773;23456.734;   -9.237;28805.723
747.344;23246.566;   -9.847;29591.223
747.916;21981.631;  -11.657;31412.201
748.487;22261.760;  -10.587;32194.898
749.059;23401.994;   -8.707;32533.719
749.630;24080.748;  -10.537;32158.518
750.201;23240.148;  -11.687;30855.395
750.773;21461.879;  -11.647;28622.555
751.344;21440.803;   -7.147;28405.732
751.915;22682.639;   -9.757;28461.551
752.486;22474.154;  -12.427;27842.850
753.057;20238.500;  -12.227;27845.008
753.628;19103.838;  -10.417;27728.107
754.199;20263.045;  -11.767;27381.086
754.770;21185.830;  -11.187;25882.203
755.341;21124.020;  -10.507;25886.184
755.912;21081.273;   -9.387;26050.861
756.483;20480.354;  -10.647;26798.779
757.054;18734.852;  -11.837;27048.238
757.625;17518.047;  -12.716;26294.838
758.195;17360.783;   -9.666;26142.076
758.766;17117.145;   -8.656;26392.234
759.337;17863.674;  -12.856;26334.594
759.907;19581.670;  -13.366;27579.652
760.478;20426.178;   -8.576;28352.770
761.048;19798.033;  -10.526;27325.088
761.619;18997.248;  -11.116;26460.428
762.189;19096.463;  -12.136;26029.826
762.760;20243.588;   -9.456;26430.145
763.330;21289.242;   -7.136;26670.902
763.900;20647.260;  -11.786;26603.021
764.471;18047.896;  -11.546;25542.740
765.041;16863.668;   -8.096;24358.459
765.611;16984.625;   -8.876;23991.297
766.181;17348.311;  -12.196;24470.236
766.751;18208.441;  -11.636;24845.975
767.321;17976.893;  -10.156;24533.633
767.891;16111.481;  -11.766;24916.492
768.461;15639.379;  -14.936;24776.771
769.031;16167.802;  -12.356;24757.988
769.601;17645.439;   -7.526;24181.088
770.171;17414.998;  -10.766;23670.387
770.741;16667.590;  -13.176;22960.045
771.311;16920.330;  -10.616;22917.523
771.880;17235.504;   -9.576;23562.941
772.450;16881.422;  -10.336;24216.500
773.020;17020.453;  -13.516;24140.398
773.589;16506.166;  -13.466;24414.857
774.159;15858.446;   -8.686;23858.717
774.729;15377.761;   -9.476;22942.135
775.298;14843.340;  -13.666;22324.033
775.867;14450.738;  -11.716;21140.313
776.437;14529.675;   -9.906;20838.092
777.006;14324.214;  -12.166;20599.510
777.576;14259.511;  -12.356;20508.809
778.145;14403.519;  -11.646;20732.947
778.714;14253.294;   -8.226;21062.465
779.283;13464.111;   -9.556;20949.664
779.853;12970.732;  -14.116;20508.623
780.422;13422.521;  -11.506;20649.082
780.991;13018.617;   -9.556;21527.520
781.560;11915.817;   -9.095;22632.658
782.129;11806.001;  -12.135;23048.277
782.698;11834.663;  -10.865;23438.555
783.267;11402.602;   -9.335;23267.734
783.836;11389.928;  -11.045;22415.133
784.404;12482.170;  -13.865;20443.152
784.973;13035.192;  -13.095;19699.150
785.542;12914.185;  -11.575;19763.828
786.111;12699.903;   -9.705;20341.408
786.679;12147.467;  -12.105;20207.967
787.248;11901.173;  -12.455;19516.465
787.817;11766.998;  -11.535;18900.363
788.385;11390.506;   -9.765;17879.121
788.954;10832.843;  -14.005;17658.301
789.522;10331.008;  -11.955;17788.879
790.090;10872.720;  -10.135;18118.277
790.659;11249.716;  -10.975;18338.736
791.227;10759.333;  -13.375;18508.615
791.795;11212.251;  -12.375;17898.254
792.364;11595.694;  -10.725;17295.133
792.932;11899.754;   -9.715;16822.051
793.500;12035.570;  -12.675;17040.148
794.068;12234.551;  -13.495;17179.787
794.636;12343.103;  -10.885;16664.246
795.204;11820.031;  -11.045;16524.545
795.772;11940.981;  -13.175;17274.564
796.340;11488.302;  -12.445;17891.002
796.908;11321.226;   -9.735;17648.561
797.476;11180.404;   -9.815;17064.080
798.044;10698.041;  -13.985;16672.777
798.612; 9889.405;  -13.115;17023.996
799.180; 9487.712;  -10.185;16561.615
799.747; 9406.255;   -9.055;15962.773
800.315; 9166.621;  -12.385;15296.992
800.883; 8839.555;  -15.035;14801.771
801.450; 8842.141;  -10.365;14534.430
802.018; 8921.637;   -9.855;14173.248
802.585; 9081.999;  -11.905;14029.547
803.153; 9155.357;  -11.585;13836.846
803.720; 8974.971;   -9.095;13567.324
804.287; 8530.226;   -9.135;13360.622
804.855; 8119.630;  -11.604;13681.981
805.422; 7975.295;  -11.794;13536.560
805.989; 7971.397;  -10.734;13355.958
806.556; 8165.212;  -10.444;13747.896
807.124; 8410.470;  -12.764;13987.376
807.691; 8389.977;  -12.964;14038.674
808.258; 8191.762;  -11.134;14120.152
808.825; 7844.154;   -9.854;13860.111
809.392; 7877.665;  -10.504;13268.790
809.959; 7403.272;  -13.054;12680.389
810.526; 7004.105;   -8.294;12427.308
811.093; 7063.637;   -8.394;12030.105
811.659; 7629.298;  -12.304;11653.664
812.226; 8079.703;  -13.944;11637.183
812.793; 7778.792;  -10.484;11611.521
813.360; 7183.624;  -10.144;11885.181
813.926; 6905.758;  -11.684;12770.539
814.493; 6693.663;  -13.644;12677.638
815.060; 6314.613;   -9.724;11974.336
815.626; 6315.548;   -9.854;11594.715
816.193; 6708.698;  -13.254;11579.474
816.759; 6740.323;  -13.204;11666.972
817.325; 6810.041;   -9.434;11325.530
817.892; 7140.703;  -10.134;11105.369
818.458; 7558.701;  -13.474;10843.928
819.024; 7180.152;  -11.854;10714.406
819.591; 6821.890;  -10.244;10469.165
820.157; 6610.468;  -10.704;10235.523
820.723; 6150.001;  -12.324;10847.563
821.289; 5839.346;   -9.444;11040.980
821.855; 5718.233;   -8.374;10357.100
822.421; 5646.749;  -10.234; 9978.918
822.987; 5628.691;  -13.294; 9754.177
823.553; 5361.878;  -10.884;10065.755
824.119; 5215.727;   -8.884;10036.294
824.685; 5290.625;   -6.784;10029.192
825.251; 5357.191;  -12.004;10199.230
825.816; 5303.917;  -11.474; 9820.189
826.382; 5085.195;   -9.174; 9297.248
826.948; 5298.604;   -9.214; 9381.347
827.513; 5673.687;  -10.774; 9450.726
828.079; 5488.521;  -11.924; 9472.444
828.645; 4944.835;  -10.543; 9292.643
829.210; 4878.633;  -10.533; 9065.341
829.776; 4868.029;  -10.753; 9132.620
830.341; 4751.551;  -10.173; 9092.878
830.906; 4925.803;  -10.743; 9078.557
831.472; 5233.745;  -11.113; 8534.535
832.037; 4956.249;  -10.603; 8677.874
832.602; 4432.547;  -13.323; 8628.692
833.167; 4208.262;  -10.823; 8879.031
833.733; 4151.532;  -10.113; 9189.790
834.298; 4269.934;  -13.583; 9052.608
834.863; 4315.438;  -12.703; 8895.087
835.428; 4288.856;  -10.523; 8824.266
835.993; 4171.702;   -6.963; 8845.385
836.558; 4043.507;  -10.763; 8888.563
837.123; 4177.337;   -9.903; 8966.582
837.688; 4385.450;   -9.913; 8617.860
838.253; 4597.029;  -10.283; 8590.699
838.817; 4790.801;  -12.963; 8443.797
839.382; 4706.829;  -14.243; 8799.356
839.947; 4395.450;  -10.733; 8810.595
840.511; 4101.557;   -9.383; 8796.394
841.076; 3738.637;  -12.563; 8347.231
841.641; 3796.233;  -12.953; 8224.330
842.205; 3898.288;   -7.043; 8223.349
842.770; 4017.301;   -8.163; 8622.107
843.334; 4196.624;  -12.503; 8410.386
843.898; 4151.471;  -11.693; 8337.465
844.463; 4176.972;  -10.203; 8506.283
845.027; 3964.940;   -9.533; 8280.962
845.591; 3792.496;  -13.443; 8231.141
846.156; 3751.691;  -13.143; 7969.179
846.720; 3622.886;   -9.433; 7768.278
847.284; 3493.529;  -11.033; 7630.957
847.848; 3370.971;  -10.403; 7472.395
848.412; 3297.118;  -11.553; 7437.394
848.976; 3345.788;   -8.393; 7674.592
849.540; 3290.005;   -8.713; 7836.011
850.104; 3413.613;  -12.463; 7913.669
850.668; 3761.096;  -12.973; 7694.508
851.232; 3844.817;  -10.793; 7756.887
851.796; 3679.155;  -10.662; 7926.545
852.359; 3393.891;  -13.082; 7827.844
852.923; 3236.919;  -12.192; 7641.163
853.487; 3055.984;  -11.912; 7342.501
854.050; 2999.752;  -10.892; 7042.820
854.614; 3137.719;  -13.992; 7151.338
855.177; 3266.117;  -11.732; 7105.077
855.741; 3307.665;   -8.962; 6989.675
856.304; 3204.858;   -9.442; 6596.634
856.868; 3156.513;  -14.192; 6356.272
857.431; 3251.837;  -12.702; 6468.571
857.995; 3375.915;   -9.942; 6373.210
858.558; 3387.944;   -9.112; 6324.448
859.121; 3121.559;  -12.932; 6408.327
859.684; 2998.744;  -13.442; 6347.886
860.247; 3099.723;  -10.632; 6321.264
860.810; 3085.813;  -11.272; 6301.903
861.374; 2837.563;   -9.832; 6607.881
861.937; 2598.002;  -11.762; 6408.200
862.500; 2598.996;   -9.722; 6572.639
863.062; 2783.518;  -10.512; 6387.297
863.625; 2951.671;  -11.232; 6190.836
864.188; 3099.494;  -14.112; 5807.254
864.751; 3152.478;  -11.302; 5682.413
865.314; 3034.284;  -10.112; 5547.492
865.876; 2838.082;  -12.182; 5500.150
866.439; 2833.192;  -10.722; 5415.909
867.002; 2783.128;   -9.252; 5501.567
867.564; 2569.524;   -9.572; 5413.946
868.127; 2345.880;  -13.142; 5160.325
868.689; 2244.581;  -12.902; 5133.183
869.252; 2150.391;   -9.732; 5252.382
869.814; 2061.429;   -9.432; 5297.141
870.377; 2080.551;  -11.552; 5390.919
870.939; 2150.808;   -9.052; 5599.898
871.501; 2206.174;  -10.982; 5248.336
872.063; 2206.192;  -12.292; 4854.235
872.626; 2165.709;  -14.912; 4817.074
873.188; 2201.471;  -13.112; 4987.732
873.750; 2171.240;  -13.442; 4868.651
874.312; 2064.865;   -9.402; 4779.330
874.874; 1973.174;  -11.062; 4866.348
875.436; 1884.996;  -13.931; 4718.887
875.998; 1874.317;   -9.561; 4660.005
876.560; 1892.927;  -11.321; 4462.964
877.122; 1831.879;  -12.221; 4145.042
877.683; 1745.103;  -12.191; 4056.481
878.245; 1680.969;  -12.101; 3950.740
878.807; 1723.124;   -8.971; 4058.958
879.369; 1746.079;  -12.071; 3954.677
879.930; 1646.066;  -14.621; 3941.495
880.492; 1586.277;  -10.311; 4067.014
881.053; 1546.861;  -10.901; 3859.633
881.615; 1436.462;  -14.411; 3776.071
882.176; 1342.900;  -13.761; 3734.750
882.738; 1301.384;   -9.181; 3678.489
883.299; 1273.868;  -11.791; 3405.407
883.860; 1280.478;  -13.121; 3351.106
884.422; 1281.067;  -11.211; 3394.044
884.983; 1235.219;  -10.091; 3166.443
885.544; 1156.288;   -8.461; 3189.802
886.105; 1077.870;  -12.361; 3160.360
886.666; 1013.131;  -14.141; 3093.059
887.227;  957.865;  -11.361; 2941.957
887.788;  898.301;  -11.401; 2974.836
888.349;  836.182;  -13.791; 2721.214
888.910;  833.068;  -13.191; 2696.493
889.471;  842.688;   -9.881; 2560.172
890.032;  825.490;   -9.881; 2558.190
890.593;  801.001;  -10.371; 2567.669
891.153;  773.788;  -13.301; 2460.307
891.714;  727.471;  -11.431; 2372.046
892.275;  686.861;  -11.291; 2309.505
892.835;  648.324;  -11.471; 2382.543
893.396;  596.052;  -11.541; 2295.502
893.956;  542.297;  -11.181; 2162.420
894.517;  508.535;  -11.741; 2125.439
895.077;  503.718;  -11.671; 2086.978
895.638;  503.128;  -11.311; 2126.316
896.198;  475.011;   -9.831; 1838.275
896.758;  433.691;   -8.421; 1892.813
897.319;  403.603;  -12.351; 1792.232
897.879;  388.097;  -13.511; 1762.751
898.439;  363.555;  -12.001; 1661.149
898.999;  340.212;  -10.180; 1781.468
899.559;  331.587;  -12.030; 1703.347
900.119;  327.190;  -15.710; 1537.525
900.679;  324.153;   -8.900; 1638.384
901.239;  309.500;   -8.340; 1527.902
901.799;  298.957;  -13.910; 1456.441
902.359;  294.239;  -13.460; 1357.140
902.919;  287.571;  -11.490; 1331.118
903.479;  274.609;  -12.110; 1317.257
904.038;  255.404;  -11.720; 1262.595
904.598;  240.280;  -13.610; 1152.034
905.158;  236.355;  -11.040; 1240.893
905.717;  229.512;  -10.900; 1233.691
906.277;  218.506;  -15.080; 1217.330
906.836;  209.289;  -13.380; 1222.408
907.396;  201.497;  -10.780; 1193.047
907.955;  194.833;   -8.500; 1182.526
908.515;  188.729;  -12.760; 1099.364
909.074;  182.645;  -11.900; 1092.863
909.633;  178.140;   -8.950; 1069.121
910.192;  173.312;   -8.770; 1196.460
910.752;  168.028;  -12.390; 1029.960
911.311;  163.937;  -13.680; 1009.780
911.870;  162.211;  -12.370;  971.460
912.429;  163.090;  -10.900; 1094.080
912.988;  161.922;  -11.690; 1081.060
913.547;  157.365;  -13.240;  940.380
914.106;  152.517;  -11.990;  999.420
914.665;  149.558;   -9.990;  984.020
915.224;  148.909;  -12.880; 1035.760
915.782;  148.202;  -12.350;  922.560
916.341;  148.739;   -9.110; 1049.840
916.900;  144.669;   -9.270;  925.260
917.458;  142.768;  -13.240;  884.220
918.017;  142.020;  -13.550;  942.600
918.576;  142.060;  -12.320;  904.440
919.134;  139.807;  -11.490;  837.980
919.693;  136.654;  -13.670;  893.060
920.251;  135.578;  -15.470;  876.500
920.809;  135.928;  -11.290;  839.580
921.368;  134.994;  -10.210;  885.360
921.926;  133.737;  -12.140;  842.940
922.484;  131.629;  -13.080;  903.360
923.042;  132.366;  -11.720;  880.340
923.601;  135.279;   -7.480;  998.680
924.159;  133.546;  -11.570;  935.560
924.717;  130.155;  -13.840;  841.080
925.275;  129.984;  -10.640;  903.240
925.833;  129.613;  -11.540;  779.320
926.391;  130.720;  -12.960;  938.380
926.949;  129.391;  -14.130;  857.680
927.506;  130.121;  -11.750;  903.500
928.064;  129.962;  -10.250;  877.580
928.622;  128.210;  -13.030;  880.100
929.180;  128.399;  -13.400;  814.180
929.737;  130.003;  -10.700;  808.540
930.295;  133.696;  -10.070;  928.480
930.853;  134.964;  -11.960;  849.100
931.410;  134.976;  -13.120;  821.120
931.968;  134.895;  -10.770;  940.660
932.525;  134.679;  -10.680;  909.380
933.082;  134.782;  -13.130;  811.440
933.640;  134.959;  -13.210;  925.900
934.197;  134.342;  -11.060;  886.360
934.754;  135.172;   -9.580;  897.780
935.312;  137.425;  -14.000;  863.340
935.869;  142.469;  -10.710; 1012.980
936.426;  142.856;   -9.860;  872.800
936.983;  143.502;   -9.710;  889.020
937.540;  142.190;  -13.990;  838.280
938.097;  140.724;  -14.040;  940.120
938.654;  141.506;  -10.310;  898.860
939.211;  143.886;  -10.560;  952.480
939.768;  146.953;  -13.900;  915.420
940.324;  150.583;  -14.760;  904.200
940.881;  151.882;  -10.370;  878.500
941.438;  152.827;   -8.260; 1021.200
941.995;  147.984;  -12.540;  992.560
942.551;  146.151;  -14.670;  875.620
943.108;  147.276;  -10.450;  937.920
943.664;  149.196;  -10.750;  869.340
944.221;  150.938;  -11.550; 1088.140
944.777;  149.126;  -14.770;  869.680
945.334;  150.233;  -12.820;  884.840
945.890;  151.887;  -10.130;  946.480
946.446;  151.306;  -13.470;  947.020
947.003;  153.427;  -12.120;  964.940
947.559;  156.861;   -9.980; 1063.040
948.115;  154.640;   -9.080; 1026.540
948.671;  153.031;  -10.830;  967.300
949.227;  151.576;  -12.440;  859.560
949.783;  148.568;  -12.910;  858.900
950.339;  149.289;  -10.270;  991.000
950.895;  149.393;  -13.630; 1023.840
951.451;  149.249;  -15.100;  925.280
952.007;  149.888;  -11.330;  998.540
952.563;  149.480;  -10.580;  937.780
953.118;  149.321;  -13.440;  904.940
953.674;  148.789;  -12.710;  935.780
954.230;  149.136;  -10.350;  949.640
954.785;  145.952;   -9.190;  936.640
955.341;  143.062;  -11.200;  998.160
955.897;  141.823;  -16.560;  834.660
956.452;  143.166;  -12.570;  953.840
957.008;  142.561;   -7.970; 1083.640
957.563;  140.244;  -11.940; 1009.540
958.118;  135.222;  -13.450;  877.700
958.674;  137.061;  -12.030;  946.780
959.229;  137.571;   -9.410; 1013.980
959.784;  134.835;  -12.000;  832.400
960.339;  134.269;  -14.780; 1001.280
960.894;  132.173;   -9.860;  963.760
961.449;  127.054;   -9.970;  859.960
962.004;  127.467;  -10.900; 1212.840
962.559;  122.129;  -13.150;  860.140
963.114;  120.632;  -13.740;  742.480
963.669;  119.700;   -9.820;  915.500
964.224;  117.948;  -13.890;  874.340
964.779;  116.712;  -12.600;  828.420
965.334;  117.959;  -10.950; 1017.860
965.888;  117.458;  -11.170;  875.360
966.443;  119.243;  -12.540;  972.380
966.998;  119.350;  -15.780;  819.460
967.552;  118.448;   -9.760;  908.380
968.107;  114.878;   -9.060;  868.300
968.661;  114.461;  -11.950;  922.440
969.216;  116.622;  -12.800;  856.280
969.770;  116.910;  -11.210;  917.200
970.324;  115.491;  -11.610;  923.140
970.879;  112.067;  -11.370;  947.180
971.433;  108.994;  -12.540;  952.720
971.987;  104.296;  -11.320;  895.340
972.541;  101.225;  -10.720;  917.100
973.095;  101.187;   -9.680; 1009.460
973.649;   99.010;  -11.440;  809.480
974.203;   98.921;  -11.210;  829.040
974.757;   98.917;  -10.240;  855.220
975.311;   98.791;  -13.720;  872.600
975.865;   97.740;  -13.770;  881.820
976.419;   95.654;  -11.690;  857.400
976.973;   95.853;   -9.510;  849.620
977.526;   96.892;  -12.620;  949.920
978.080;   96.475;  -12.010;  796.780
978.634;   98.896;  -10.170;  921.320
979.187;   95.324;   -9.020;  905.400
979.741;   92.663;   -9.820; 1018.380
980.294;   88.382;  -14.870;  789.160
980.848;   87.052;  -12.380;  717.220
981.401;   88.409;  -10.350;  816.540
981.955;   90.619;  -13.720;  844.300
982.508;   90.005;  -11.490;  746.340
983.061;   90.378;  -10.000;  915.260
983.615;   85.989;  -11.480;  798.800
984.168;   83.066;  -13.220;  770.080
984.721;   82.705;  -13.960;  880.760
985.274;   81.974;  -10.870;  867.500
985.827;   80.813;   -9.790;  834.220
986.380;   78.267;  -13.120;  721.340
986.933;   77.147;  -12.450;  864.800
987.486;   76.110;  -10.210;  861.920
988.039;   74.646;   -8.430;  863.100
988.591;   73.006;  -10.520;  893.260
989.144;   70.051;  -14.860;  737.260
989.697;   70.215;  -13.080;  758.740
990.250;   70.830;  -10.150;  858.100
990.802;   69.200;  -13.430;  755.860
991.355;   70.763;  -12.750;  974.880
991.907;   68.204;  -12.040;  864.320
992.460;   65.645;  -11.330;  753.760
993.012;   65.007;  -13.610;  749.540
993.565;   63.955;  -13.460;  711.360
994.117;   66.818;   -9.360;  950.780
994.669;   62.070;  -11.300;  701.320
995.221;   59.994;  -13.540;  791.920
995.774;   58.127;  -13.430;  787.580
996.326;   57.058;  -12.520;  740.220
996.878;   57.010;  -10.950;  838.420
997.430;   54.734;  -14.300;  699.860
997.982;   53.932;  -13.760;  750.140
998.534;   53.883;  -11.530;  739.060
999.086;   52.344;  -10.310;  738.220
999.638;   51.114;  -12.530;  661.380
1000.190;   49.862;  -11.840;  699.320
1000.741;   50.912;  -10.260;  742.700
1001.293;   49.630;   -8.860;  686.020
1001.845;   47.812;  -13.700;  676.640
1002.396;   48.759;  -12.100;  743.400
1002.948;   47.786;  -12.760;  737.400
1003.500;   46.717;  -10.380;  723.780
1004.051;   46.878;  -11.900;  907.580
1004.603;   44.958;  -12.250;  791.820
1005.154;   41.991;  -13.210;  608.980
1005.705;   41.333;  -10.950;  723.960
1006.257;   41.228;  -13.880;  707.220
1006.808;   39.222;  -12.840;  685.460
1007.359;   39.598;  -10.570;  763.240
1007.910;   38.780;   -9.620;  646.640
1008.461;   38.559;  -13.630;  732.940
1009.013;   37.175;  -17.200;  588.340
1009.564;   38.684;  -10.200;  793.520
1010.115;   35.869;  -12.570;  597.040
1010.665;   35.316;  -15.150;  602.160
1011.216;   35.817;  -14.480;  667.920
1011.767;   35.753;  -11.340;  697.920
1012.318;   36.074;   -9.780;  736.980
1012.869;   34.219;  -12.380;  679.000
1013.419;   34.087;  -15.560;  603.120
1013.970;   34.751;  -11.010;  666.640
1014.521;   34.008;  -11.610;  620.620
1015.071;   34.153;  -13.450;  670.380
1015.622;   33.682;  -13.870;  635.460
1016.172;   33.370;  -11.610;  596.820
1016.723;   32.747;  -12.120;  614.380
1017.273;   32.149;  -13.620;  604.160
1017.823;   32.254;  -14.140;  650.340
1018.374;   32.043;  -12.800;  611.760
1018.924;   32.226;  -12.340;  716.880
1019.474;   31.904;  -11.410;  718.880
1020.024;   30.363;  -14.770;  657.580
1020.574;   32.394;   -9.780;  726.160
1021.124;   31.974;   -8.560;  673.580
1021.674;   29.943;  -15.190;  559.120
1022.224;   31.505;  -13.530;  708.940
1022.774;   31.072;  -13.280;  668.820
1023.324;   31.182;  -10.690;  753.520
1023.874;   31.967;  -10.240;  875.760
1024.423;   29.877;  -12.540;  613.700
1024.973;   30.051;  -10.010;  610.760
1025.523;   28.649;  -10.550;  620.960
1026.072;   28.764;  -13.560;  606.420
1026.622;   28.622;  -15.120;  675.740
1027.172;   29.877;  -11.260;  715.660
1027.721;   28.130;  -11.410;  601.220
1028.270;   28.489;  -13.530;  663.400
1028.820;   27.743;  -13.680;  638.080
1029.369;   27.774;  -13.520;  612.700
1029.918;   28.171;  -10.980;  649.840
1030.468;   26.673;  -13.530;  564.780
1031.017;   27.482;  -13.170;  634.800
1031.566;   26.893;  -12.200;  608.900
1032.115;   27.535;   -9.960;  694.500
1032.664;   25.561;  -13.210;  596.480
1033.213;   26.507;  -12.500;  735.420
1033.762;   26.835;  -11.910;  635.620
1034.311;   26.618;   -9.640;  677.220
1034.860;   26.389;  -13.310;  691.000
1035.408;   26.244;  -11.830;  722.720
1035.957;   26.887;  -12.000;  719.540
1036.506;   24.700;  -11.690;  530.800
1037.055;   26.294;  -10.990;  844.320
1037.603;   25.105;  -15.120;  664.000
1038.152;   23.674;  -12.450;  534.760
1038.700;   24.408;  -10.560;  585.740
1039.249;   24.105;  -11.080;  681.220
1039.797;   23.535;  -12.540;  633.360
1040.345;   24.814;  -11.920;  705.420
1040.894;   24.333;  -11.410;  625.300
1041.442;   23.769;  -14.320;  632.200
1041.990;   22.585;  -16.240;  559.160
1042.538;   23.217;  -11.680;  536.180
1043.087;   23.427;  -10.760;  570.860
1043.635;   23.903;  -11.850;  670.500
1044.183;   22.253;  -15.480;  586.400
1044.731;   23.260;  -11.770;  576.000
1045.279;   22.459;  -13.090;  674.920
1045.827;   23.667;  -12.440;  892.400
1046.374;   21.912;  -13.840;  515.420
1046.922;   21.735;  -13.220;  590.580
1047.470;   23.098;  -10.230;  691.300
1048.018;   21.930;  -14.590;  647.960
1048.565;   22.676;  -12.050;  708.600
1049.113;   21.601;  -11.650;  557.000
1049.660;   21.819;  -10.510;  629.660
1050.208;   21.751;  -13.310;  675.640
1050.755;   20.519;  -15.900;  606.580
1051.303;   21.963;  -11.430;  686.820
1051.850;   20.538;   -8.480;  635.120
1052.397;   18.363;  -15.010;  473.960
1052.945;   19.869;  -13.960;  617.760
1053.492;   21.931;  -13.150;  741.840
1054.039;   20.908;   -9.630;  720.180
1054.586;   19.701;  -13.680;  557.240
1055.133;   20.425;  -14.570;  693.140
1055.680;   20.299;  -13.820;  646.620
1056.227;   19.567;  -11.730;  542.780
1056.774;   20.516;  -12.480;  794.980
1057.321;   18.223;  -13.930;  523.260
1057.868;   19.125;  -11.690;  651.320
1058.415;   18.835;   -9.520;  651.980
1058.961;   19.813;  -13.160;  678.940
1059.508;   17.990;  -12.920;  643.820
1060.055;   18.781;  -11.920;  581.780
1060.601;   18.790;  -11.500;  624.300
1061.148;   18.476;  -14.330;  616.820
1061.694;   18.038;  -16.870;  592.580
1062.241;   18.346;  -10.330;  596.320
1062.787;   17.713;  -10.620;  663.140
1063.334;   19.423;  -10.110;  808.560
1063.880;   18.322;  -13.400;  668.360
1064.426;   18.869;  -10.680;  706.820
1064.972;   17.411;   -9.920;  601.340
1065.518;   15.878;  -10.980;  566.640
1066.065;   17.534;  -14.890;  624.460
1066.611;   16.809;  -12.870;  598.800
1067.157;   17.899;  -12.950;  641.860
1067.703;   17.110;  -13.540;  668.480
1068.249;   16.471;  -13.540;  605.220
1068.794;   16.398;  -12.600;  626.880
1069.340;   15.725;  -10.620;  578.960
1069.886;   15.571;  -12.830;  590.700
1070.432;   15.156;  -14.870;  541.720
1070.977;   15.749;  -11.980;  601.080
1071.523;   15.668;   -8.200;  573.060
1072.068;   15.521;  -12.330;  582.000
1072.614;   15.600;  -16.370;  527.760
1073.160;   16.225;  -11.100;  687.040
1073.705;   14.898;  -10.480;  572.520
1074.250;   14.515;  -14.520;  559.900
1074.796;   15.958;  -11.460;  655.160
1075.341;   16.176;  -11.950;  664.100
1075.886;   15.423;  -11.460;  594.240
1076.431;   14.247;  -13.770;  649.880
1076.976;   14.529;  -12.680;  639.220
1077.521;   14.423;  -13.170;  583.080
1078.067;   14.118;  -10.860;  579.400
1078.612;   13.697;  -13.920;  661.620
1079.156;   13.834;  -13.880;  601.540
1079.701;   14.935;  -13.120;  693.260
1080.246;   14.915;   -9.940;  696.300
1080.791;   14.158;  -14.740;  625.020
1081.336;   14.022;  -13.750;  659.320
1081.880;   13.855;  -13.400;  649.680
1082.425;   13.181;  -12.220;  573.480
1082.970;   14.753;  -11.610;  717.040
1083.514;   12.544;  -13.580;  597.000
1084.059;   13.276;  -12.810;  586.720
1084.603;   12.492;  -12.320;  565.840
1085.147;   12.886;  -13.190;  645.220
1085.692;   13.194;  -12.480;  716.800
1086.236;   12.028;  -13.020;  503.140
1086.780;   14.202;   -9.190;  751.440
1087.325;   13.053;  -12.480;  654.620
1087.869;   12.457;  -12.450;  610.700
1088.413;   13.672;  -12.240;  705.040
1088.957;   11.072;   -9.020;  543.400
1089.501;   13.113;  -10.320;  766.640
1090.045;   12.076;  -12.720;  726.480
1090.589;   11.043;  -13.690;  569.920
1091.133;   12.174;  -10.020;  673.340
1091.676;   11.650;  -12.330;  591.940
1092.220;   11.473;  -14.970;  600.920
1092.764;   12.439;  -12.430;  706.960
1093.307;   11.694;   -9.800;  673.780
1093.851;   10.317;  -14.970;  556.540
1094.395;   11.480;  -15.310;  683.140
1094.938;   11.074;  -10.370;  632.520
1095.482;   10.304;  -11.050;  559.800
1096.025;   11.666;  -11.840;  710.880
1096.568;   11.798;  -12.840;  779.280
1097.112;    9.165;  -14.700;  508.180
1097.655;   10.935;   -8.720;  603.000
1098.198;    9.205;  -13.610;  600.180
1098.741;    9.249;  -13.350;  612.860
1099.285;   11.114;  -11.230;  657.300
1099.828;    8.584;  -11.840;  439.400
1100.371;    9.791;  -10.840;  608.160
1100.914;    9.688;  -14.190;  682.660
1101.457;    9.565;  -11.240;  679.900
1101.999;    8.407;  -11.270;  584.680
1102.542;    9.234;  -11.480;  641.440
1103.085;    8.672;  -11.750;  658.500
1103.628;   10.413;  -11.400;  762.060
1104.170;    8.943;  -10.490;  588.280
1104.713;    9.670;  -10.600;  646.700
1105.256;    7.841;  -14.360;  557.440
1105.798;    7.495;  -13.210;  499.980
1106.341;    9.268;  -10.270;  728.900
1106.883;    8.579;  -12.200;  521.340
1107.425;    8.188;  -13.110;  668.180
1107.968;    8.473;  -12.840;  612.380
1108.510;    9.141;   -6.480;  684.960
1109.052;    6.434;  -13.940;  612.620
1109.594;    7.486;  -13.690;  554.440
1110.136;    7.956;  -11.880;  643.220
1110.679;    7.821;   -9.500;  633.080
1111.221;    7.144;  -14.160;  604.460
1111.763;    6.850;  -13.980;  559.220
1112.304;    7.317;  -13.880;  547.140
1112.846;    8.035;  -12.210;  666.240
1113.388;    9.590;  -11.390;  942.180
1113.930;    7.579;  -14.540;  694.200
1114.472;    6.961;  -12.640;  606.540
1115.013;    6.062;  -11.620;  551.280
1115.555;    5.903;  -13.640;  587.100
1116.097;    5.402;  -15.380;  579.480
1116.638;    7.185;  -12.640;  684.600
1117.180;    6.983;   -9.850;  667.740
1117.721;    6.363;  -13.690;  568.580
1118.262;    6.997;  -12.680;  677.960
1118.804;    7.007;  -12.530;  637.340
1119.345;    5.994;  -11.690;  578.400
1119.886;    6.554;  -13.380;  704.040
1120.427;    5.303;  -14.070;  589.020
1120.969;    5.389;  -13.500;  597.920
1121.510;    5.364;  -11.480;  563.060
1122.051;    5.138;  -12.830;  723.580
1122.592;    5.110;  -14.290;  655.420
1123.133;    4.815;  -12.400;  547.940
1123.673;    6.347;  -10.130;  706.480
1124.214;    5.055;  -12.930;  612.460
1124.755;    5.614;  -14.380;  639.460
1125.296;    5.449;  -14.000;  627.320
1125.836;    6.453;  -10.070;  691.500
1126.377;    4.059;  -12.640;  599.660
1126.918;    5.179;  -12.960;  614.980
1127.458;    4.507;  -13.350;  622.220
1127.999;    5.740;  -10.750;  656.980
1128.539;    5.522;  -12.350;  694.240
1129.079;    3.989;  -14.860;  632.720
1129.620;    3.910;  -13.840;  558.100
1130.160;    4.079;  -12.330;  539.480
1130.700;    4.853;  -14.530;  640.840
1131.240;    5.502;  -12.530;  643.700
1131.781;    4.432;  -14.450;  619.680
1132.321;    4.109;   -9.790;  599.120
1132.861;    2.576;  -14.860;  564.200
1133.401;    2.351;  -14.290;  593.940
1133.941;    3.668;  -11.750;  626.280
1134.481;    3.506;   -9.920;  597.580
1135.020;    2.838;  -12.290;  609.160
1135.560;    3.188;  -11.650;  674.940
1136.100;    2.900;  -16.270;  501.160
1136.640;    2.446;  -10.890;  510.480
1137.179;    2.031;  -14.180;  537.960
1137.719;    2.853;  -16.250;  605.400
1138.258;    3.026;  -14.230;  587.360
1138.798;    3.201;   -9.090;  663.780
1139.337;    1.903;  -15.130;  482.840
1139.877;    3.152;  -13.680;  642.360
1140.416;    5.318;  -11.320;  878.060
1140.955;    2.411;  -10.860;  535.380
1141.494;    2.457;  -12.920;  669.280
1142.034;    2.440;  -13.930;  583.520
1142.573;    3.633;  -11.440;  646.280
1143.112;    2.299;  -12.000;  553.480
1143.651;    1.218;  -13.670;  536.480
1144.190;    3.135;  -12.730;  691.640
1144.729;    2.415;  -14.560;  607.420
1145.267;    2.048;  -11.830;  584.900
1145.806;    2.590;  -12.230;  637.040
1146.345;    1.253;  -14.130;  635.020
1146.884;    2.410;  -11.590;  622.500
1147.422;    1.527;  -12.550;  533.060
1147.961;    2.971;  -11.180;  708.460
1148.500;    2.005;  -11.510;  669.720
1149.038;    3.358;  -11.640;  632.500
1149.577;    2.060;  -10.130;  698.640
1150.115;   -0.759;  -13.970;  452.280
1150.653;    0.789;  -14.520;  607.340
1151.192;    1.399;  -12.810;  552.920
1151.730;    1.439;   -9.100;  652.560
1152.268;    0.262;  -12.220;  589.520
1152.806;   -0.069;  -14.140;  571.180
1153.344;   -0.554;  -12.350;  577.640
1153.882;    1.071;   -8.980;  600.060
1154.421;   -1.149;  -15.190;  470.620
1154.958;   -0.765;  -15.210;  595.240
1155.496;    1.975;  -12.850;  645.280
1156.034;    0.549;   -9.940;  721.880
1156.572;    1.649;  -13.570;  667.060
1157.110;   -0.313;  -14.590;  473.940
1157.647;    1.056;  -13.030;  676.960
1158.185;   -0.221;  -12.140;  564.320
1158.723;   -1.547;  -14.390;  509.200
1159.260;    0.344;  -14.090;  701.700
1159.798;    1.085;  -11.920;  658.160
1160.335;   -0.988;  -11.110;  631.820

