
Integration time [ms]:   3.276
Averaging Nr. [scans]: 1000
Smoothing Nr. [pixels]: 0
Data measured with spectrometer [name]: 7414430SP
Wave   ;Sample   ;Dark     ;Reference
[nm]   ;[counts] ;[counts] ;[counts] 

288.544;  151.101;    7.793;  793.890
289.143;  154.525;    7.462;  681.602
289.742;  155.451;    8.602;  828.814
290.341;  140.778;    1.321;  789.841
290.940;  129.105;   -0.709;  730.702
291.538;  129.897;    0.881;  881.108
292.137;  130.506;    0.122;  792.581
292.736;  136.019;   -1.929;  975.101
293.335;  130.947;   -8.229;  735.086
293.934;  130.764;   -5.279;  781.677
294.532;  130.577;   -1.369; 1031.958
295.131;  116.186;   -7.641;  834.394
295.730;  116.130;   -8.420;  809.588
296.328;  115.365;   -5.611;  783.442
296.927;  117.195;   -5.781;  779.652
297.525;  117.919;   -6.361;  781.236
298.124;  107.486;  -11.382;  654.009
298.722;  110.345;   -7.641;  761.933
299.321;  110.006;   -6.811;  708.597
299.919;  107.997;   -6.991;  751.918
300.518;  103.372;  -10.362;  689.338
301.116;  105.377;   -9.581;  691.381
301.715;  106.410;   -4.891;  730.222
302.313;  105.147;   -8.801;  704.943
302.911;  100.669;   -8.522;  733.830
303.509;  104.748;   -6.171;  925.627
304.108;  104.523;   -7.311;  760.383
304.706;  102.500;   -8.321;  801.664
305.304;   96.052;  -10.222;  796.707
305.902;  102.109;   -6.021;  784.484
306.500;   97.989;   -4.971;  728.200
307.098;   96.412;   -7.061;  746.560
307.696;   94.035;   -8.801;  780.432
308.294;   94.520;   -6.411;  731.359
308.892;   97.854;   -2.901;  759.769
309.490;   93.575;   -5.041;  712.161
310.088;   90.637;   -5.002;  788.444
310.686;   94.484;   -2.041;  821.749
311.284;   91.856;   -2.351;  766.040
311.882;   89.311;   -4.422;  731.225
312.480;   84.604;   -4.192;  697.167
313.078;   87.657;   -1.172;  808.331
313.675;   88.793;   -2.601;  691.600
314.273;   84.200;   -1.312;  797.837
314.871;   82.738;   -3.942;  589.829
315.468;   80.170;   -2.802;  652.090
316.066;   84.197;   -0.701;  694.427
316.664;   77.018;   -4.362;  656.351
317.261;   79.465;   -2.872;  910.128
317.859;   75.202;   -2.022;  768.735
318.456;   77.066;   -0.531;  830.096
319.054;   73.438;   -3.912;  787.828
319.651;   71.312;   -4.752;  759.928
320.249;   69.709;   -2.602;  810.188
320.846;   68.507;   -0.821;  714.286
321.443;   66.014;   -4.642;  832.135
322.041;   62.321;   -5.002;  812.315
322.638;   59.650;   -3.982;  701.456
323.235;   61.805;   -3.411;  665.683
323.833;   59.463;   -7.361;  740.354
324.430;   54.051;   -8.611;  615.900
325.027;   54.784;   -4.061;  876.855
325.624;   55.347;   -4.031;  644.532
326.221;   52.080;   -7.481;  689.717
326.818;   50.863;   -5.281;  818.332
327.415;   54.236;   -7.460;  748.828
328.012;   54.880;   -5.510;  690.585
328.609;   53.648;   -7.880;  731.389
329.206;   51.292;   -8.331;  778.621
329.803;   51.359;   -5.121;  737.841
330.400;   54.868;   -4.510;  704.260
330.997;   56.268;   -6.441;  817.147
331.594;   53.982;   -8.831;  788.185
332.191;   59.038;   -7.621;  728.722
332.787;   62.314;   -4.591;  844.463
333.384;   60.880;   -7.412;  763.093
333.981;   59.157;   -8.293;  815.687
334.578;   61.980;   -7.052;  708.378
335.174;   65.287;   -3.102;  731.469
335.771;   65.534;   -5.943;  836.456
336.367;   60.839;   -7.393;  710.631
336.964;   64.424;   -4.063;  793.266
337.561;   63.532;   -3.813;  731.112
338.157;   58.865;   -4.654;  911.916
338.754;   55.795;   -7.934;  796.589
339.350;   54.300;   -4.414;  722.493
339.946;   55.814;   -4.664;  773.135
340.543;   47.717;   -6.375;  846.136
341.139;   42.222;   -9.815;  720.836
341.735;   40.208;   -4.526;  772.593
342.332;   39.855;   -4.895;  691.472
342.928;   40.521;   -4.295;  795.394
343.524;   34.050;   -5.476;  761.684
344.120;   30.163;   -5.856;  738.562
344.716;   33.835;   -2.155;  723.717
345.313;   31.457;   -6.275;  795.342
345.909;   26.335;   -8.815;  627.336
346.505;   27.142;   -5.305;  740.247
347.101;   29.326;   -2.674;  827.864
347.697;   29.579;   -4.344;  785.398
348.293;   23.134;   -9.975;  627.244
348.889;   24.034;   -5.774;  745.914
349.485;   24.329;   -5.004;  688.205
350.081;   24.923;   -4.704;  772.592
350.676;   19.836;   -6.635;  691.606
351.272;   24.161;   -4.504;  809.530
351.868;   24.936;   -3.914;  780.497
352.464;   21.053;   -9.044;  723.932
353.059;   16.774;   -8.314;  646.017
353.655;   20.643;   -7.024;  777.063
354.251;   22.177;   -5.343;  759.845
354.846;   16.741;   -8.604;  740.646
355.442;   13.910;   -6.945;  753.071
356.038;   15.300;   -7.564;  751.708
356.633;   16.701;   -5.814;  728.594
357.229;   14.175;   -7.364;  724.757
357.824;   11.425;   -8.024;  703.600
358.420;   10.747;   -9.384;  679.726
359.015;   12.545;   -5.104;  695.357
359.610;   12.593;   -6.854;  763.920
360.206;    7.274;  -10.185;  603.240
360.801;    9.336;   -7.054;  646.503
361.396;   12.052;   -5.034;  725.975
361.992;    7.607;   -8.284;  668.220
362.587;    4.784;   -8.625;  670.160
363.182;    6.372;   -7.674;  689.631
363.777;    8.010;   -5.164;  738.242
364.372;    8.102;   -8.604;  737.314
364.967;    2.674;   -9.055;  680.744
365.563;    7.042;   -6.114;  815.567
366.158;    5.675;   -5.814;  685.161
366.753;    5.160;   -7.854;  649.263
367.348;    3.388;   -7.804;  746.056
367.942;    2.788;   -7.954;  697.298
368.537;    3.524;   -4.984;  754.245
369.132;    3.725;   -8.564;  703.428
369.727;   -1.573;   -8.855;  638.079
370.322;    0.048;   -6.245;  580.186
370.917;    0.397;   -6.425;  710.646
371.511;    3.688;   -6.294;  861.834
372.106;   -0.433;   -7.685;  776.964
372.701;   -3.724;   -7.335;  585.988
373.296;    2.755;   -4.564;  863.135
373.890;   -2.311;  -10.235;  647.840
374.485;   -4.835;   -7.885;  691.199
375.079;   -0.839;   -7.324;  738.685
375.674;    0.896;   -3.494;  812.970
376.268;   -3.948;   -8.525;  691.759
376.863;  -10.388;  -10.086;  580.327
377.457;   -4.199;   -7.025;  662.490
378.052;   -4.210;   -3.585;  764.884
378.646;   -5.883;   -7.595;  741.167
379.240;   -6.952;   -8.335;  721.176
379.835;   -5.941;   -5.785;  636.978
380.429;   -6.685;   -4.335;  562.557
381.023;   -7.097;   -6.805;  779.205
381.617;  -10.699;   -9.195;  680.106
382.212;   -6.952;   -6.905;  685.303
382.806;   -5.253;   -3.745;  760.690
383.400;   -9.273;   -7.745;  672.281
383.994;   -9.974;   -9.765;  664.870
384.588;   -7.249;   -6.564;  697.701
385.182;   -4.978;   -5.344;  726.624
385.776;   -6.599;   -8.514;  706.875
386.370;  -10.589;   -9.555;  681.968
386.964;   -9.839;   -8.715;  684.155
387.558;   -6.687;   -6.174;  598.360
388.152;  -10.446;   -8.725;  681.959
388.745;   -9.542;   -7.965;  814.707
389.339;   -7.531;   -5.924;  747.642
389.933;   -6.027;   -5.524;  695.370
390.527;   -6.922;   -7.114;  859.029
391.120;  -13.736;  -10.725;  595.318
391.714;  -10.928;   -8.035;  711.633
392.308;   -7.226;   -3.574;  780.253
392.901;  -10.749;   -7.245;  642.460
393.495;  -13.594;   -9.285;  595.414
394.089;  -11.488;   -5.895;  760.452
394.682;  -10.651;   -4.295;  697.188
395.275;  -12.143;   -9.875;  719.927
395.869;  -13.790;   -8.485;  667.314
396.462;  -12.194;   -7.455;  616.609
397.056;   -7.627;   -5.424;  776.621
397.649;  -11.843;   -6.605;  731.575
398.242;   -9.823;   -8.224;  712.645
398.836;   -8.725;   -7.474;  766.408
399.429;  -10.404;   -7.094;  631.041
400.022;  -12.879;   -9.475;  665.902
400.615;  -10.799;   -7.145;  805.609
401.208;   -9.363;   -7.174;  691.451
401.802;  -10.775;   -5.515;  699.329
402.395;  -12.354;   -9.875;  683.502
402.988;  -12.936;   -8.845;  696.627
403.581;  -10.511;   -8.874;  646.878
404.174;   -6.673;   -5.324;  686.568
404.767;  -10.480;   -9.575;  638.583
405.360;  -13.663;  -10.965;  621.445
405.953;   -8.533;   -8.764;  759.034
406.545;   -7.060;   -7.514;  725.342
407.138;  -11.059;  -10.025;  618.350
407.731;  -10.526;  -10.034;  613.303
408.324;   -6.213;   -9.374;  660.554
408.917;   -6.280;   -6.534;  681.864
409.509;   -8.662;   -8.004;  740.396
410.102;  -10.855;   -9.875;  643.948
410.695;   -5.132;   -8.604;  665.758
411.287;   -5.287;   -6.794;  599.821
411.880;   -6.276;   -9.334;  585.421
412.472;  -10.366;  -10.254;  613.092
413.065;   -7.153;   -6.714;  629.408
413.657;   -4.444;   -7.234;  576.678
414.250;   -3.939;  -10.544;  646.681
414.842;   -7.018;   -9.744;  676.353
415.434;   -5.090;   -6.994;  570.463
416.027;   -0.125;   -5.893;  652.196
416.619;   -2.073;   -7.264;  713.400
417.211;   -3.334;  -10.374;  599.352
417.804;   -0.129;   -7.993;  628.499
418.396;   -2.508;   -7.234;  607.643
418.988;   -0.151;   -9.443;  659.238
419.580;   -4.725;  -10.724;  568.276
420.172;   -2.515;  -10.323;  536.196
420.764;    2.163;   -8.793;  672.482
421.356;    1.725;  -11.143;  636.898
421.948;   -0.502;   -8.293;  677.661
422.540;    4.520;   -7.893;  680.027
423.132;    5.046;   -7.082;  600.641
423.724;    1.687;   -8.653;  561.267
424.316;    2.954;  -10.213;  621.345
424.908;    6.994;   -9.762;  591.517
425.500;    7.594;   -5.572;  647.978
426.092;    8.045;   -8.422;  648.268
426.683;    6.418;   -9.283;  684.836
427.275;    8.850;   -7.852;  641.471
427.867;   11.404;   -5.272;  668.948
428.458;   12.219;   -7.682;  732.344
429.050;    9.839;  -10.612;  680.749
429.642;   11.789;   -9.882;  743.124
430.233;   13.590;   -6.962;  569.356
430.825;   14.673;   -6.842;  724.809
431.416;   11.671;   -9.672;  698.241
432.008;   14.496;   -6.552;  651.723
432.599;   16.078;   -6.891;  656.073
433.190;   13.607;  -10.912;  637.670
433.782;   12.485;  -11.172;  590.395
434.373;   19.160;   -6.061;  884.765
434.964;   18.915;   -8.251;  602.920
435.556;   17.032;   -9.722;  634.537
436.147;   18.670;   -9.082;  758.490
436.738;   18.478;   -8.041;  701.099
437.329;   25.021;   -7.341;  721.723
437.920;   18.517;   -8.162;  666.688
438.511;   16.673;  -11.802;  564.526
439.103;   23.930;  -10.191;  623.998
439.694;   26.370;   -7.601;  681.583
440.285;   26.942;   -8.541;  764.432
440.876;   24.406;   -9.751;  845.738
441.466;   24.139;   -9.401;  575.162
442.057;   29.701;   -7.760;  665.814
442.648;   28.908;   -9.971;  746.255
443.239;   26.120;  -11.001;  620.477
443.830;   31.418;   -7.990;  704.958
444.421;   34.084;   -7.910;  655.474
445.011;   30.792;   -8.131;  693.619
445.602;   29.659;   -7.111;  743.126
446.193;   31.432;  -10.920;  488.117
446.783;   36.688;   -6.500;  640.397
447.374;   32.142;   -8.671;  692.759
447.964;   31.729;  -10.781;  713.770
448.555;   40.503;   -9.650;  822.742
449.145;   37.966;   -8.660;  662.853
449.736;   39.182;   -8.990;  803.179
450.326;   38.033;   -9.500;  713.626
450.917;   42.501;   -8.680;  675.324
451.507;   42.797;   -7.520;  600.661
452.097;   43.329;   -8.590;  746.267
452.688;   43.969;  -11.340;  742.160
453.278;   43.398;  -10.100;  566.840
453.868;   48.855;   -6.019;  793.550
454.458;   47.150;   -9.440;  651.141
455.048;   46.543;  -10.560;  711.783
455.639;   48.673;  -11.799;  567.096
456.229;   52.588;   -6.899;  710.694
456.819;   54.291;   -7.389;  751.158
457.409;   53.639;  -11.119;  773.993
457.999;   56.226;   -9.289;  737.505
458.589;   56.934;   -6.139;  686.606
459.179;   57.422;   -8.729;  717.658
459.769;   54.675;   -9.789;  627.099
460.358;   59.805;  -10.259;  797.262
460.948;   60.024;   -7.299;  689.503
461.538;   61.611;  -10.289;  660.677
462.128;   59.234;  -11.269;  664.934
462.717;   65.648;   -9.368;  710.326
463.307;   69.339;   -7.908;  705.846
463.897;   65.377;   -9.599;  656.942
464.486;   63.810;   -9.769;  837.128
465.076;   68.447;   -8.048;  733.776
465.666;   72.604;   -9.358;  652.900
466.255;   70.301;   -7.919;  785.651
466.845;   69.203;  -11.689;  666.749
467.434;   71.827;   -7.818;  725.873
468.023;   74.179;   -7.678;  658.357
468.613;   71.748;  -10.939;  713.946
469.202;   74.654;  -10.118;  646.507
469.791;   79.065;   -9.108;  737.811
470.381;   81.541;   -6.058;  742.813
470.970;   81.133;  -10.428;  711.099
471.559;   80.703;  -10.268;  733.291
472.148;   84.578;   -8.448;  675.737
472.738;   87.702;   -6.917;  765.466
473.327;   87.536;  -11.978;  637.529
473.916;   85.765;  -11.888;  737.446
474.505;   90.374;   -9.437;  751.703
475.094;   94.291;   -6.747;  806.570
475.683;   93.383;   -9.367;  797.699
476.272;   93.673;  -12.637;  730.632
476.861;   96.533;  -10.027;  706.754
477.449;  103.520;   -8.716;  728.487
478.038;   98.319;   -9.577;  692.513
478.627;   97.986;   -9.718;  714.852
479.216;  105.700;   -8.947;  769.441
479.805;  109.684;   -6.256;  783.375
480.393;  109.454;   -7.937; 1008.945
480.982;  107.759;   -7.717;  874.501
481.571;  114.086;   -9.266;  858.333
482.159;  114.909;   -7.636;  705.386
482.748;  115.338;   -9.667;  821.385
483.336;  119.325;  -10.376;  858.209
483.925;  120.335;   -7.147;  774.373
484.513;  128.198;   -7.996;  758.962
485.102;  124.401;  -10.027;  810.965
485.690;  132.933;  -10.446; 1011.050
486.278;  134.583;   -8.446;  979.329
486.867;  135.959;   -6.356;  809.662
487.455;  138.064;   -9.136;  898.229
488.043;  139.180;  -10.646;  748.361
488.631;  147.324;   -7.456; 1005.079
489.220;  152.891;   -6.636;  908.626
489.808;  153.647;  -11.036;  741.415
490.396;  161.092;  -10.246;  914.645
490.984;  167.119;   -8.556;  830.161
491.572;  177.965;   -5.886;  940.315
492.160;  184.812;   -9.486;  919.081
492.748;  197.903;  -10.976;  884.341
493.336;  220.747;   -8.776; 1019.693
493.924;  250.693;   -5.465;  958.077
494.512;  280.462;   -9.986; 1066.638
495.100;  320.418;  -10.636; 1103.280
495.687;  380.087;  -10.885; 1206.373
496.275;  450.201;   -8.126; 1150.796
496.863;  525.389;  -10.586; 1281.171
497.451;  631.903;  -11.926; 1386.805
498.038;  772.795;  -10.885; 1556.729
498.626;  889.462;   -6.315; 1741.407
499.214; 1055.826;   -7.326; 2016.609
499.801; 1267.392;  -11.906; 2220.633
500.389; 1528.647;  -10.466; 2312.494
500.976; 1852.913;   -5.236; 2744.849
501.564; 2321.645;   -8.936; 3148.565
502.151; 2705.264;  -13.176; 3515.999
502.738; 3153.716;  -10.646; 3971.274
503.326; 3573.264;   -9.525; 4403.796
503.913; 4012.279;  -10.856; 5161.749
504.500; 4425.817;  -11.586; 5986.420
505.088; 4840.783;  -10.336; 6381.201
505.675; 5411.182;   -6.355; 6925.547
506.262; 6158.678;   -9.046; 7619.060
506.849; 6939.017;  -10.416; 8733.969
507.436; 7504.034;  -10.305; 9790.121
508.023; 8131.738;   -5.496; 9985.472
508.610; 8387.398;   -7.856;10434.618
509.197; 9014.816;  -10.097;11198.435
509.784;10437.164;  -10.886;12391.194
510.371;11718.213;   -9.315;13603.713
510.958;12572.148;   -9.936;14426.586
511.545;13353.344;   -9.326;15243.775
512.132;14181.546;  -10.075;15945.876
512.719;14759.008;   -7.796;16340.369
513.305;15980.810;  -10.606;18011.766
513.892;16769.854;  -11.486;19754.971
514.479;18071.811;   -9.126;20967.805
515.066;19611.564;   -6.026;22299.793
515.652;21238.615;   -8.466;22908.660
516.239;22651.068;  -10.886;23798.875
516.825;23604.334;  -11.496;25567.275
517.412;24699.000;   -5.796;28154.959
517.998;25502.199;  -10.506;28344.111
518.585;25543.596;  -10.076;27134.219
519.171;26137.889;   -8.315;27268.576
519.758;28002.580;   -8.596;28964.129
520.344;30160.994;   -8.466;30664.494
520.930;29858.699;  -11.006;32550.605
521.516;30955.309;  -10.495;35422.895
522.103;33036.281;   -5.526;38280.004
522.689;33677.719;   -8.746;37835.117
523.275;33225.527;  -11.376;37288.613
523.861;34914.125;  -11.156;37281.395
524.447;36865.922;   -8.135;37846.949
525.033;36842.777;   -7.896;38321.949
525.619;36976.941;  -12.476;38579.285
526.205;38312.660;   -9.516;40622.875
526.791;41251.516;   -6.926;42258.836
527.377;41337.527;   -8.346;42966.902
527.963;42545.016;   -8.717;42018.949
528.549;41596.586;  -11.016;42476.828
529.135;40082.832;   -8.536;41854.852
529.721;38786.105;   -9.666;41237.711
530.306;38139.055;  -10.066;41259.445
530.892;37988.371;  -11.356;41506.047
531.478;39172.949;   -6.596;43559.613
532.063;42613.785;   -8.836;47695.563
532.649;43906.496;  -10.047;50808.324
533.235;44457.793;   -9.746;51787.500
533.820;44610.934;   -6.566;52145.035
534.406;45979.301;  -10.817;51133.488
534.991;45762.703;   -9.416;49996.805
535.576;44061.422;   -9.036;48882.852
536.162;45048.121;   -6.156;46942.285
536.747;46387.691;  -11.607;45711.746
537.333;49452.445;  -11.787;48510.180
537.918;52661.324;  -12.437;50439.891
538.503;52053.652;   -7.196;50863.711
539.088;48440.699;  -10.556;50906.922
539.673;48121.125;   -8.767;52621.965
540.259;48441.539;  -10.026;52368.094
540.844;45876.320;   -7.416;50879.109
541.429;47834.375;   -9.467;52077.777
542.014;50094.160;   -9.527;52716.695
542.599;48916.922;   -9.946;52363.281
543.184;45866.016;   -7.927;53187.137
543.769;47178.957;   -9.297;54697.605
544.354;47239.188;  -10.127;53913.914
544.938;45794.117;   -9.267;49680.164
545.523;47661.773;   -6.506;47386.277
546.108;50741.223;   -9.787;49151.949
546.693;52832.477;  -11.587;51384.637
547.278;52930.887;  -10.986;51853.254
547.862;49855.688;   -8.206;51173.750
548.447;45115.594;  -10.067;51691.395
549.031;44126.145;   -9.637;52456.703
549.616;49012.188;   -9.926;52714.516
550.201;48837.754;   -6.347;52414.598
550.785;50228.855;   -7.917;52355.059
551.370;49267.996;  -10.867;54589.453
551.954;48605.957;   -9.047;58267.348
552.538;49422.746;   -7.827;59062.176
553.123;47626.199;  -10.287;58115.285
553.707;45201.766;  -12.178;56556.285
554.291;46718.363;   -8.717;56201.668
554.876;49861.828;   -7.457;55335.762
555.460;50011.621;  -10.387;54155.703
556.044;50198.898;   -9.618;53721.484
556.628;48270.625;  -11.567;53731.016
557.212;47233.656;   -8.097;54312.531
557.796;45856.223;  -11.077;53797.773
558.380;45919.418;  -11.108;56145.984
558.964;46204.707;   -9.057;57277.930
559.548;47255.301;   -6.977;56459.641
560.132;45270.641;  -11.457;54434.543
560.716;43602.922;  -11.378;54800.617
561.300;44821.988;   -9.577;57606.945
561.884;46061.039;   -7.127;58972.445
562.467;43999.973;   -7.118;57327.570
563.051;43125.258;  -13.358;54962.434
563.635;44641.691;  -10.178;52594.473
564.219;45348.516;   -7.837;50610.410
564.802;45987.313;  -11.398;49551.180
565.386;45599.199;  -12.788;48370.953
565.969;44975.922;   -9.077;48178.871
566.553;43687.363;   -6.207;49957.305
567.136;44566.191;   -8.568;50369.594
567.720;41210.313;  -11.868;49492.004
568.303;38922.527;   -8.268;50616.352
568.887;38793.293;   -8.698;50727.148
569.470;39491.594;   -6.808;51698.379
570.053;38588.730;  -13.188;52122.078
570.637;36212.320;  -12.037;52536.438
571.220;35899.953;   -8.577;51186.098
571.803;36915.711;   -8.498;51032.762
572.386;39166.559;  -10.498;49609.887
572.969;41741.664;   -9.388;48285.926
573.552;40139.426;   -8.338;47624.285
574.135;38515.516;   -8.518;45498.641
574.718;35994.875;  -13.628;41970.434
575.301;35211.496;  -10.893;41447.137
575.884;34428.117;   -8.158;40923.836
576.467;35479.855;  -10.328;45267.723
577.050;36902.879;  -13.058;48175.543
577.633;38187.875;   -9.458;47729.328
578.216;37593.613;   -8.928;47579.793
578.799;36829.891;   -9.358;47820.996
579.381;35819.953;  -11.388;48115.551
579.964;33693.625;  -11.718;47333.766
580.547;35564.891;   -8.588;46668.969
581.129;36392.305;   -8.859;44466.141
581.712;37195.887;  -10.729;44164.922
582.294;37702.383;  -11.118;46477.855
582.877;37819.156;   -5.218;48244.254
583.459;35979.063;   -8.679;47437.895
584.042;33714.387;  -10.709;46943.219
584.624;33616.629;  -11.669;46792.227
585.206;33406.313;   -8.218;46557.250
585.789;33744.418;  -10.569;45793.773
586.371;36212.258;  -11.859;43836.391
586.953;36772.891;  -10.719;42972.492
587.536;37756.273;   -7.198;42487.211
588.118;38329.031;   -8.720;42086.414
588.700;34500.027;  -10.439;43389.930
589.282;33469.480;   -9.198;43646.039
589.864;34476.938;   -9.199;43438.109
590.446;35650.656;  -11.319;43151.926
591.028;35422.324;  -11.159;42781.867
591.610;34100.605;  -11.779;42839.098
592.192;31383.328;   -7.668;42820.402
592.774;30016.928;  -11.949;40724.277
593.356;29013.984;  -12.129;39874.789
593.937;28076.230;  -10.669;39980.648
594.519;30336.561;   -6.509;42069.633
595.101;32309.902;  -10.849;42976.031
595.683;32308.889;  -11.679;44084.441
596.264;33259.492;   -9.049;43478.797
596.846;33045.840;   -8.849;43803.672
597.427;32932.934;   -9.570;42986.934
598.009;34209.668;  -12.620;42832.219
598.591;34682.188;  -10.039;42580.086
599.172;34335.242;  -10.369;43061.805
599.753;34617.145;   -9.140;41691.469
600.335;35854.012;  -11.430;40692.520
600.916;33814.668;   -9.939;39982.422
601.498;31523.762;   -8.479;40318.617
602.079;29967.842;  -10.920;40670.609
602.660;29706.992;  -11.480;41450.898
603.241;31542.059;  -11.699;41137.738
603.823;30193.945;   -9.579;38868.797
604.404;29326.482;  -10.620;38182.785
604.985;31143.287;  -10.450;38078.047
605.566;31254.219;   -9.129;38056.633
606.147;31336.227;   -7.510;37020.418
606.728;32882.461;  -10.660;37883.359
607.309;31433.826;  -11.740;38748.273
607.890;31149.967;   -9.759;38850.230
608.471;30691.844;   -8.250;37457.918
609.051;29947.506;   -9.240;36066.457
609.632;28613.273;  -12.120;35991.074
610.213;28863.637;   -9.110;37402.641
610.794;29822.211;   -8.030;38383.363
611.374;29757.203;   -8.110;40562.387
611.955;30536.438;  -13.560;38533.727
612.536;31955.885;  -11.400;36951.789
613.116;31654.242;   -8.070;37197.891
613.697;31911.400;  -10.830;38411.125
614.277;29913.879;  -11.641;38673.938
614.858;30647.264;  -13.310;37075.863
615.438;30254.859;   -7.460;35092.906
616.019;27962.643;   -7.601;33666.301
616.599;28235.061;  -12.020;34189.023
617.179;29921.162;  -11.780;36952.047
617.760;31116.279;   -8.570;39582.574
618.340;31971.682;  -11.471;38943.977
618.920;32865.438;  -11.170;37594.156
619.500;32847.129;  -11.071;37866.938
620.080;31959.781;   -7.750;37869.043
620.660;33099.863;  -12.711;36868.617
621.241;34736.484;  -10.211;36352.309
621.821;35124.805;  -10.961;35459.520
622.401;34021.195;   -7.720;35207.414
622.980;33051.316;   -8.981;35980.422
623.560;31600.602;   -9.331;37351.328
624.140;30238.877;   -9.850;34388.582
624.720;25320.266;   -7.451;32368.764
625.300;21870.699;   -9.070;32638.629
625.880;25325.689;  -12.601;34599.035
626.459;29450.854;  -11.751;36831.738
627.039;32298.918;   -9.281;38299.098
627.619;32195.801;   -8.801;38289.574
628.198;30683.760;  -12.071;37220.695
628.778;29645.133;   -9.461;37632.563
629.357;30267.104;   -8.491;38003.012
629.937;30282.070;   -9.721;38402.039
630.516;29826.742;   -9.951;37868.801
631.096;29611.225;  -11.731;35760.410
631.675;31850.609;   -8.572;35225.219
632.254;36917.484;  -11.282;35130.289
632.834;36434.320;  -13.322;35794.570
633.413;34740.938;  -10.301;35788.922
633.992;32373.084;   -8.582;34532.863
634.571;33053.074;   -8.352;33590.113
635.151;35786.887;  -11.912;34943.863
635.730;34267.504;  -10.511;35352.523
636.309;30829.396;   -7.731;35366.605
636.888;28253.947;   -9.952;36165.637
637.467;28741.191;  -11.672;37515.902
638.046;30258.531;   -8.901;39288.695
638.625;33244.574;   -7.912;38279.699
639.204;33083.281;  -10.022;37741.598
639.782;31904.961;  -12.252;38364.551
640.361;28019.586;  -10.041;36740.621
640.940;25292.598;  -11.161;34950.082
641.519;26099.117;   -9.701;34137.398
642.097;28906.059;  -11.271;35654.258
642.676;31729.635;   -8.651;35637.957
643.255;32833.848;   -8.711;36567.074
643.833;32113.105;   -9.581;37809.434
644.412;32100.447;  -13.711;37337.293
644.990;31078.082;  -11.811;37018.531
645.569;30983.256;   -9.411;36518.469
646.147;30587.604;  -10.291;36186.430
646.726;30612.166;  -12.401;36267.688
647.304;31575.102;  -10.411;36647.625
647.882;32975.801;   -9.651;39286.742
648.461;34568.102;   -9.631;39157.703
649.039;32937.230;  -11.881;35412.883
649.617;31910.746;   -9.661;34744.918
650.195;31149.607;   -9.301;35403.098
650.773;29827.693;  -10.511;35053.797
651.352;27482.609;  -11.521;33756.816
651.930;25192.318;  -12.211;31868.773
652.508;23632.867;   -9.171;33121.551
653.086;27472.539;   -9.371;33564.793
653.663;30482.504;  -13.161;34054.668
654.241;29224.172;  -13.031;35693.309
654.819;30743.791;   -9.371;36422.906
655.397;30664.754;  -10.511;38213.484
655.975;30084.186;  -10.371;39507.625
656.553;29709.746;  -10.051;39498.223
657.130;28303.998;  -10.061;40395.480
657.708;27705.553;   -9.561;39242.020
658.286;27840.242;  -11.511;38920.020
658.863;29043.547;  -10.261;40202.898
659.441;32383.615;   -7.531;39677.938
660.018;32368.445;   -9.501;40413.355
660.596;30954.436;  -13.301;39931.414
661.173;32454.162;  -11.211;39604.531
661.750;32737.695;   -9.951;39700.070
662.328;31600.891;   -9.390;39292.809
662.905;30759.482;  -11.330;38235.648
663.482;26600.260;   -9.050;36212.305
664.060;24656.959;   -8.240;35944.945
664.637;27431.539;  -10.050;35170.785
665.214;28951.699;  -11.760;34197.523
665.791;30618.402;  -10.530;34549.520
666.368;29754.877;   -9.690;35118.578
666.945;30080.801;   -9.320;36019.418
667.522;31574.355;  -11.860;36048.438
668.099;31364.557;  -10.770;36243.914
668.676;30028.441;   -6.260;35958.875
669.253;28764.693;   -7.000;37384.730
669.830;29213.900;  -10.190;36779.629
670.407;29087.887;   -9.550;35231.289
670.984;28819.523;   -9.260;35544.270
671.560;29589.564;   -9.280;35466.867
672.137;28934.074;  -11.810;34280.863
672.714;29898.072;  -11.490;34632.863
673.290;31053.018;   -7.740;35135.422
673.867;31049.137;  -10.660;36114.480
674.443;30888.990;  -12.230;36152.859
675.020;28901.674;  -10.450;35327.238
675.596;29914.992;   -9.260;35795.176
676.173;30653.676;  -10.780;35430.355
676.749;30303.186;  -13.690;33549.516
677.326;30047.268;  -11.980;32210.012
677.902;29926.045;   -8.630;32068.871
678.478;29181.766;  -10.730;32583.891
679.054;28210.779;  -10.520;32088.928
679.631;28630.023;  -11.920;30978.848
680.207;30102.867;   -7.490;33160.887
680.783;31543.582;   -9.860;35570.363
681.359;30703.357;  -13.380;36125.184
681.935;30500.951;  -12.480;35240.922
682.511;30372.006;   -7.900;34429.961
683.087;30690.855;   -7.710;34463.680
683.663;29911.959;  -11.480;34648.898
684.239;28422.314;  -14.090;34546.457
684.815;27765.838;   -7.560;35586.375
685.390;27997.051;   -9.910;35821.895
685.966;28531.150;  -11.159;35085.871
686.542;31017.316;  -11.169;34198.230
687.118;33460.043;   -5.959;32847.707
687.693;33869.383;  -10.329;32794.027
688.269;33478.977;  -12.059;33072.367
688.844;31653.406;  -10.909;33141.664
689.420;29685.918;   -8.019;33965.742
689.995;27807.566;   -8.399;34655.523
690.571;26413.350;  -10.949;33576.742
691.146;26423.926;   -9.619;32657.219
691.722;26245.477;   -8.999;32526.979
692.297;25962.857;  -11.589;33014.617
692.872;27323.361;  -11.739;34012.254
693.448;27097.240;  -11.059;34237.434
694.023;26125.490;  -10.139;34142.672
694.598;28006.617;   -9.029;34132.031
695.173;28643.361;  -13.319;34205.250
695.748;27750.744;  -10.169;32882.488
696.323;27756.285;   -8.339;32864.906
696.898;27987.994;   -8.169;33170.004
697.473;28164.623;  -12.309;32432.984
698.048;27446.809;  -10.989;31649.303
698.623;27055.729;   -9.329;30778.141
699.198;28585.891;   -9.849;31140.119
699.773;29964.135;  -12.329;31764.299
700.348;28728.867;  -10.389;31780.816
700.922;28642.242;   -9.269;32046.375
701.497;29587.881;   -9.329;32603.574
702.072;29726.484;  -10.789;34799.871
702.646;28320.244;  -10.839;35793.172
703.221;26250.439;   -9.099;35201.590
703.795;28173.852;  -10.939;34764.527
704.370;28692.799;  -12.859;34307.367
704.944;28969.654;  -11.559;33509.887
705.519;29586.098;   -7.939;31388.584
706.093;30784.945;  -10.499;31340.104
706.668;31241.715;  -11.289;32630.281
707.242;30121.953;  -11.509;32728.779
707.816;28775.182;   -9.639;32947.238
708.390;27325.174;  -11.429;33277.855
708.965;27690.846;  -11.869;33834.336
709.539;27593.604;  -11.689;33709.273
710.113;27770.049;  -10.478;33044.313
710.687;27383.154;  -10.228;31953.992
711.261;25941.482;  -13.698;30505.949
711.835;25808.447;  -13.378;30262.369
712.409;26281.574;   -9.698;31254.447
712.983;28263.205;  -11.898;32754.986
713.557;29475.316;  -15.138;34018.824
714.131;29199.979;  -14.098;34579.625
714.704;28134.996;   -9.958;33890.262
715.278;25712.607;  -10.028;33531.102
715.852;24479.643;  -11.148;33601.660
716.425;25404.309;   -9.068;33515.117
716.999;26559.553;  -10.038;33185.555
717.573;27500.744;   -9.798;33905.996
718.146;28458.170;  -12.378;35199.293
718.720;28486.602;  -11.918;35060.551
719.293;28336.568;   -8.088;34973.230
719.867;31280.066;  -10.888;36394.449
720.440;31073.035;  -11.938;36663.008
721.013;29372.217;  -12.818;35102.426
721.587;27762.385;  -10.298;33985.266
722.160;26500.564;  -10.048;33524.965
722.733;25555.609;  -12.108;32987.043
723.306;25838.363;  -10.818;33066.301
723.880;27979.758;   -8.908;33399.500
724.453;30239.311;   -9.878;33468.297
725.026;29525.961;  -11.188;33816.637
725.599;26708.910;  -11.678;32797.996
726.172;26587.467;   -9.618;33187.434
726.745;27510.887;   -8.258;35136.613
727.318;28816.543;  -12.978;35751.730
727.891;29581.711;  -12.148;35890.430
728.463;29154.412;   -8.968;34822.090
729.036;27794.643;  -10.188;32895.086
729.609;28228.254;  -11.788;31823.225
730.182;25494.516;  -11.788;31445.283
730.754;23221.254;  -10.268;32373.223
731.327;23598.650;   -9.998;33676.820
731.900;23952.098;  -12.228;33417.000
732.472;24841.900;  -13.848;31978.498
733.045;26490.635;   -8.698;30368.777
733.617;26462.881;  -10.607;30574.215
734.190;26579.768;  -11.507;31280.975
734.762;24238.969;  -13.647;31674.412
735.334;22324.963;   -9.767;31247.291
735.907;22712.373;   -9.897;29876.211
736.479;22994.396;  -11.637;29808.488
737.051;22717.643;   -9.567;30233.547
737.623;23307.215;   -8.187;31469.086
738.195;23628.697;  -11.187;31784.225
738.768;25608.545;  -12.337;32120.523
739.340;26420.613;  -12.227;32094.342
739.912;25548.918;  -11.057;31312.680
740.484;24131.535;  -10.207;31946.238
741.056;22566.023;  -10.047;32984.059
741.628;23805.953;  -13.627;33897.715
742.199;25969.623;   -7.177;33213.016
742.771;24657.545;  -10.797;31369.113
743.343;22653.596;  -11.997;31865.473
743.915;21739.428;  -12.867;32388.631
744.487;21686.369;   -7.617;31079.568
745.058;21690.063;   -9.557;30570.107
745.630;22197.158;   -9.877;29970.127
746.201;23405.408;  -14.177;29186.766
746.773;24301.918;   -9.237;28805.723
747.344;24173.684;   -9.847;29591.223
747.916;22374.145;  -11.657;31412.201
748.487;22279.602;  -10.587;32194.898
749.059;23452.941;   -8.707;32533.719
749.630;24173.078;  -10.537;32158.518
750.201;23227.617;  -11.687;30855.395
750.773;21520.301;  -11.647;28622.555
751.344;21300.418;   -7.147;28405.732
751.915;22274.285;   -9.757;28461.551
752.486;22437.471;  -12.427;27842.850
753.057;20462.807;  -12.227;27845.008
753.628;19249.678;  -10.417;27728.107
754.199;20136.301;  -11.767;27381.086
754.770;21151.697;  -11.187;25882.203
755.341;21336.838;  -10.507;25886.184
755.912;21529.791;   -9.387;26050.861
756.483;21164.365;  -10.647;26798.779
757.054;19402.625;  -11.837;27048.238
757.625;17969.301;  -12.716;26294.838
758.195;17692.059;   -9.666;26142.076
758.766;17403.541;   -8.656;26392.234
759.337;18006.049;  -12.856;26334.594
759.907;19410.760;  -13.366;27579.652
760.478;20318.365;   -8.576;28352.770
761.048;19874.992;  -10.526;27325.088
761.619;18963.031;  -11.116;26460.428
762.189;18962.113;  -12.136;26029.826
762.760;19855.850;   -9.456;26430.145
763.330;21033.734;   -7.136;26670.902
763.900;20675.484;  -11.786;26603.021
764.471;18295.811;  -11.546;25542.740
765.041;16909.682;   -8.096;24358.459
765.611;16734.914;   -8.876;23991.297
766.181;17082.961;  -12.196;24470.236
766.751;18239.746;  -11.636;24845.975
767.321;18060.121;  -10.156;24533.633
767.891;16100.796;  -11.766;24916.492
768.461;15532.434;  -14.936;24776.771
769.031;16027.438;  -12.356;24757.988
769.601;17665.238;   -7.526;24181.088
770.171;17685.719;  -10.766;23670.387
770.741;16757.016;  -13.176;22960.045
771.311;16779.398;  -10.616;22917.523
771.880;17337.326;   -9.576;23562.941
772.450;17243.768;  -10.336;24216.500
773.020;17151.820;  -13.516;24140.398
773.589;16319.753;  -13.466;24414.857
774.159;15640.729;   -8.686;23858.717
774.729;15289.179;   -9.476;22942.135
775.298;14953.824;  -13.666;22324.033
775.867;14551.969;  -11.716;21140.313
776.437;14709.549;   -9.906;20838.092
777.006;14501.035;  -12.166;20599.510
777.576;14186.767;  -12.356;20508.809
778.145;14145.725;  -11.646;20732.947
778.714;14152.978;   -8.226;21062.465
779.283;13651.354;   -9.556;20949.664
779.853;13140.391;  -14.116;20508.623
780.422;13571.885;  -11.506;20649.082
780.991;13166.264;   -9.556;21527.520
781.560;11911.125;   -9.095;22632.658
782.129;11668.647;  -12.135;23048.277
782.698;11688.592;  -10.865;23438.555
783.267;11307.832;   -9.335;23267.734
783.836;11204.047;  -11.045;22415.133
784.404;12156.555;  -13.865;20443.152
784.973;12802.573;  -13.095;19699.150
785.542;12855.245;  -11.575;19763.828
786.111;12711.035;   -9.705;20341.408
786.679;12204.151;  -12.105;20207.967
787.248;11890.256;  -12.455;19516.465
787.817;11718.943;  -11.535;18900.363
788.385;11385.123;   -9.765;17879.121
788.954;10873.243;  -14.005;17658.301
789.522;10290.963;  -11.955;17788.879
790.090;10736.187;  -10.135;18118.277
790.659;11282.670;  -10.975;18338.736
791.227;10864.608;  -13.375;18508.615
791.795;11195.821;  -12.375;17898.254
792.364;11514.519;  -10.725;17295.133
792.932;11903.039;   -9.715;16822.051
793.500;12175.201;  -12.675;17040.148
794.068;12420.572;  -13.495;17179.787
794.636;12581.758;  -10.885;16664.246
795.204;11928.217;  -11.045;16524.545
795.772;11935.401;  -13.175;17274.564
796.340;11447.340;  -12.445;17891.002
796.908;11200.646;   -9.735;17648.561
797.476;11076.608;   -9.815;17064.080
798.044;10670.135;  -13.985;16672.777
798.612; 9946.449;  -13.115;17023.996
799.180; 9566.679;  -10.185;16561.615
799.747; 9418.427;   -9.055;15962.773
800.315; 9138.230;  -12.385;15296.992
800.883; 8916.808;  -15.035;14801.771
801.450; 9091.839;  -10.365;14534.430
802.018; 9211.497;   -9.855;14173.248
802.585; 9237.300;  -11.905;14029.547
803.153; 9195.024;  -11.585;13836.846
803.720; 8964.900;   -9.095;13567.324
804.287; 8470.576;   -9.135;13360.622
804.855; 7997.071;  -11.604;13681.981
805.422; 7907.021;  -11.794;13536.560
805.989; 7998.482;  -10.734;13355.958
806.556; 8171.113;  -10.444;13747.896
807.124; 8399.133;  -12.764;13987.376
807.691; 8351.362;  -12.964;14038.674
808.258; 8170.971;  -11.134;14120.152
808.825; 7845.827;   -9.854;13860.111
809.392; 7931.319;  -10.504;13268.790
809.959; 7474.156;  -13.054;12680.389
810.526; 6988.603;   -8.294;12427.308
811.093; 6973.721;   -8.394;12030.105
811.659; 7589.172;  -12.304;11653.664
812.226; 8139.897;  -13.944;11637.183
812.793; 7898.961;  -10.484;11611.521
813.360; 7276.812;  -10.144;11885.181
813.926; 6969.937;  -11.684;12770.539
814.493; 6780.250;  -13.644;12677.638
815.060; 6388.111;   -9.724;11974.336
815.626; 6340.963;   -9.854;11594.715
816.193; 6699.789;  -13.254;11579.474
816.759; 6722.931;  -13.204;11666.972
817.325; 6752.648;   -9.434;11325.530
817.892; 7099.363;  -10.134;11105.369
818.458; 7512.038;  -13.474;10843.928
819.024; 7151.880;  -11.854;10714.406
819.591; 6873.423;  -10.244;10469.165
820.157; 6686.915;  -10.704;10235.523
820.723; 6170.009;  -12.324;10847.563
821.289; 5874.702;   -9.444;11040.980
821.855; 5826.090;   -8.374;10357.100
822.421; 5820.797;  -10.234; 9978.918
822.987; 5775.829;  -13.294; 9754.177
823.553; 5403.232;  -10.884;10065.755
824.119; 5198.625;   -8.884;10036.294
824.685; 5338.796;   -6.784;10029.192
825.251; 5460.117;  -12.004;10199.230
825.816; 5412.948;  -11.474; 9820.189
826.382; 5149.909;   -9.174; 9297.248
826.948; 5282.519;   -9.214; 9381.347
827.513; 5675.354;  -10.774; 9450.726
828.079; 5548.369;  -11.924; 9472.444
828.645; 4961.108;  -10.543; 9292.643
829.210; 4768.930;  -10.533; 9065.341
829.776; 4729.446;  -10.753; 9132.620
830.341; 4617.999;  -10.173; 9092.878
830.906; 4782.524;  -10.743; 9078.557
831.472; 5122.424;  -11.113; 8534.535
832.037; 4942.679;  -10.603; 8677.874
832.602; 4448.257;  -13.323; 8628.692
833.167; 4194.534;  -10.823; 8879.031
833.733; 4138.899;  -10.113; 9189.790
834.298; 4282.688;  -13.583; 9052.608
834.863; 4420.014;  -12.703; 8895.087
835.428; 4431.191;  -10.523; 8824.266
835.993; 4266.996;   -6.963; 8845.385
836.558; 4063.697;  -10.763; 8888.563
837.123; 4126.274;   -9.903; 8966.582
837.688; 4378.184;   -9.913; 8617.860
838.253; 4638.303;  -10.283; 8590.699
838.817; 4816.773;  -12.963; 8443.797
839.382; 4742.199;  -14.243; 8799.356
839.947; 4448.187;  -10.733; 8810.595
840.511; 4150.381;   -9.383; 8796.394
841.076; 3789.231;  -12.563; 8347.231
841.641; 3844.307;  -12.953; 8224.330
842.205; 3935.029;   -7.043; 8223.349
842.770; 3964.026;   -8.163; 8622.107
843.334; 4082.476;  -12.503; 8410.386
843.898; 4029.109;  -11.693; 8337.465
844.463; 4032.298;  -10.203; 8506.283
845.027; 3839.094;   -9.533; 8280.962
845.591; 3666.724;  -13.443; 8231.141
846.156; 3671.461;  -13.143; 7969.179
846.720; 3584.344;   -9.433; 7768.278
847.284; 3483.585;  -11.033; 7630.957
847.848; 3357.805;  -10.403; 7472.395
848.412; 3267.724;  -11.553; 7437.394
848.976; 3304.197;   -8.393; 7674.592
849.540; 3227.272;   -8.713; 7836.011
850.104; 3291.132;  -12.463; 7913.669
850.668; 3636.077;  -12.973; 7694.508
851.232; 3789.355;  -10.793; 7756.887
851.796; 3660.933;  -10.662; 7926.545
852.359; 3361.894;  -13.082; 7827.844
852.923; 3182.631;  -12.192; 7641.163
853.487; 3030.010;  -11.912; 7342.501
854.050; 3016.932;  -10.892; 7042.820
854.614; 3165.772;  -13.992; 7151.338
855.177; 3275.480;  -11.732; 7105.077
855.741; 3309.109;   -8.962; 6989.675
856.304; 3207.017;   -9.442; 6596.634
856.868; 3170.530;  -14.192; 6356.272
857.431; 3273.451;  -12.702; 6468.571
857.995; 3389.720;   -9.942; 6373.210
858.558; 3420.399;   -9.112; 6324.448
859.121; 3158.879;  -12.932; 6408.327
859.684; 2997.060;  -13.442; 6347.886
860.247; 3092.285;  -10.632; 6321.264
860.810; 3126.612;  -11.272; 6301.903
861.374; 2894.187;   -9.832; 6607.881
861.937; 2640.107;  -11.762; 6408.200
862.500; 2642.427;   -9.722; 6572.639
863.062; 2791.016;  -10.512; 6387.297
863.625; 2932.530;  -11.232; 6190.836
864.188; 3084.353;  -14.112; 5807.254
864.751; 3156.078;  -11.302; 5682.413
865.314; 3068.504;  -10.112; 5547.492
865.876; 2853.408;  -12.182; 5500.150
866.439; 2815.896;  -10.722; 5415.909
867.002; 2780.104;   -9.252; 5501.567
867.564; 2600.614;   -9.572; 5413.946
868.127; 2393.288;  -13.142; 5160.325
868.689; 2277.387;  -12.902; 5133.183
869.252; 2177.233;   -9.732; 5252.382
869.814; 2076.536;   -9.432; 5297.141
870.377; 2078.763;  -11.552; 5390.919
870.939; 2142.010;   -9.052; 5599.898
871.501; 2217.112;  -10.982; 5248.336
872.063; 2229.475;  -12.292; 4854.235
872.626; 2170.725;  -14.912; 4817.074
873.188; 2163.379;  -13.112; 4987.732
873.750; 2135.857;  -13.442; 4868.651
874.312; 2049.282;   -9.402; 4779.330
874.874; 1965.408;  -11.062; 4866.348
875.436; 1890.459;  -13.931; 4718.887
875.998; 1889.188;   -9.561; 4660.005
876.560; 1915.680;  -11.321; 4462.964
877.122; 1854.181;  -12.221; 4145.042
877.683; 1752.516;  -12.191; 4056.481
878.245; 1680.054;  -12.101; 3950.740
878.807; 1720.384;   -8.971; 4058.958
879.369; 1743.983;  -12.071; 3954.677
879.930; 1652.766;  -14.621; 3941.495
880.492; 1588.816;  -10.311; 4067.014
881.053; 1557.478;  -10.901; 3859.633
881.615; 1459.671;  -14.411; 3776.071
882.176; 1362.921;  -13.761; 3734.750
882.738; 1310.178;   -9.181; 3678.489
883.299; 1286.298;  -11.791; 3405.407
883.860; 1278.750;  -13.121; 3351.106
884.422; 1266.537;  -11.211; 3394.044
884.983; 1225.569;  -10.091; 3166.443
885.544; 1156.142;   -8.461; 3189.802
886.105; 1080.460;  -12.361; 3160.360
886.666; 1016.524;  -14.141; 3093.059
887.227;  956.733;  -11.361; 2941.957
887.788;  898.465;  -11.401; 2974.836
888.349;  835.276;  -13.791; 2721.214
888.910;  826.557;  -13.191; 2696.493
889.471;  830.378;   -9.881; 2560.172
890.032;  813.359;   -9.881; 2558.190
890.593;  785.982;  -10.371; 2567.669
891.153;  758.690;  -13.301; 2460.307
891.714;  717.087;  -11.431; 2372.046
892.275;  682.935;  -11.291; 2309.505
892.835;  650.943;  -11.471; 2382.543
893.396;  602.083;  -11.541; 2295.502
893.956;  545.602;  -11.181; 2162.420
894.517;  507.036;  -11.741; 2125.439
895.077;  498.948;  -11.671; 2086.978
895.638;  500.078;  -11.311; 2126.316
896.198;  473.071;   -9.831; 1838.275
896.758;  433.120;   -8.421; 1892.813
897.319;  403.149;  -12.351; 1792.232
897.879;  388.047;  -13.511; 1762.751
898.439;  365.207;  -12.001; 1661.149
898.999;  343.028;  -10.180; 1781.468
899.559;  332.009;  -12.030; 1703.347
900.119;  326.091;  -15.710; 1537.525
900.679;  321.803;   -8.900; 1638.384
901.239;  308.768;   -8.340; 1527.902
901.799;  297.928;  -13.910; 1456.441
902.359;  291.687;  -13.460; 1357.140
902.919;  286.012;  -11.490; 1331.118
903.479;  274.334;  -12.110; 1317.257
904.038;  255.345;  -11.720; 1262.595
904.598;  239.171;  -13.610; 1152.034
905.158;  235.584;  -11.040; 1240.893
905.717;  230.330;  -10.900; 1233.691
906.277;  219.862;  -15.080; 1217.330
906.836;  209.897;  -13.380; 1222.408
907.396;  201.152;  -10.780; 1193.047
907.955;  195.052;   -8.500; 1182.526
908.515;  188.996;  -12.760; 1099.364
909.074;  182.888;  -11.900; 1092.863
909.633;  177.316;   -8.950; 1069.121
910.192;  174.528;   -8.770; 1196.460
910.752;  168.555;  -12.390; 1029.960
911.311;  163.685;  -13.680; 1009.780
911.870;  160.926;  -12.370;  971.460
912.429;  162.991;  -10.900; 1094.080
912.988;  161.240;  -11.690; 1081.060
913.547;  157.454;  -13.240;  940.380
914.106;  152.145;  -11.990;  999.420
914.665;  150.262;   -9.990;  984.020
915.224;  148.370;  -12.880; 1035.760
915.782;  148.328;  -12.350;  922.560
916.341;  148.230;   -9.110; 1049.840
916.900;  144.469;   -9.270;  925.260
917.458;  142.976;  -13.240;  884.220
918.017;  140.979;  -13.550;  942.600
918.576;  142.113;  -12.320;  904.440
919.134;  140.295;  -11.490;  837.980
919.693;  138.594;  -13.670;  893.060
920.251;  136.304;  -15.470;  876.500
920.809;  135.245;  -11.290;  839.580
921.368;  135.566;  -10.210;  885.360
921.926;  134.848;  -12.140;  842.940
922.484;  133.378;  -13.080;  903.360
923.042;  131.998;  -11.720;  880.340
923.601;  136.383;   -7.480;  998.680
924.159;  134.149;  -11.570;  935.560
924.717;  129.911;  -13.840;  841.080
925.275;  129.860;  -10.640;  903.240
925.833;  129.873;  -11.540;  779.320
926.391;  130.609;  -12.960;  938.380
926.949;  129.551;  -14.130;  857.680
927.506;  129.551;  -11.750;  903.500
928.064;  130.174;  -10.250;  877.580
928.622;  128.801;  -13.030;  880.100
929.180;  128.610;  -13.400;  814.180
929.737;  130.191;  -10.700;  808.540
930.295;  133.132;  -10.070;  928.480
930.853;  134.659;  -11.960;  849.100
931.410;  134.284;  -13.120;  821.120
931.968;  134.288;  -10.770;  940.660
932.525;  133.838;  -10.680;  909.380
933.082;  135.837;  -13.130;  811.440
933.640;  135.397;  -13.210;  925.900
934.197;  134.133;  -11.060;  886.360
934.754;  135.410;   -9.580;  897.780
935.312;  137.711;  -14.000;  863.340
935.869;  141.242;  -10.710; 1012.980
936.426;  141.574;   -9.860;  872.800
936.983;  143.804;   -9.710;  889.020
937.540;  143.018;  -13.990;  838.280
938.097;  141.163;  -14.040;  940.120
938.654;  141.535;  -10.310;  898.860
939.211;  145.136;  -10.560;  952.480
939.768;  147.621;  -13.900;  915.420
940.324;  150.228;  -14.760;  904.200
940.881;  152.385;  -10.370;  878.500
941.438;  153.534;   -8.260; 1021.200
941.995;  149.792;  -12.540;  992.560
942.551;  146.002;  -14.670;  875.620
943.108;  146.380;  -10.450;  937.920
943.664;  149.808;  -10.750;  869.340
944.221;  152.959;  -11.550; 1088.140
944.777;  149.456;  -14.770;  869.680
945.334;  149.416;  -12.820;  884.840
945.890;  151.790;  -10.130;  946.480
946.446;  152.254;  -13.470;  947.020
947.003;  152.606;  -12.120;  964.940
947.559;  156.161;   -9.980; 1063.040
948.115;  156.312;   -9.080; 1026.540
948.671;  153.893;  -10.830;  967.300
949.227;  150.664;  -12.440;  859.560
949.783;  148.669;  -12.910;  858.900
950.339;  151.250;  -10.270;  991.000
950.895;  150.820;  -13.630; 1023.840
951.451;  149.571;  -15.100;  925.280
952.007;  149.567;  -11.330;  998.540
952.563;  149.904;  -10.580;  937.780
953.118;  148.588;  -13.440;  904.940
953.674;  147.136;  -12.710;  935.780
954.230;  147.047;  -10.350;  949.640
954.785;  145.816;   -9.190;  936.640
955.341;  143.293;  -11.200;  998.160
955.897;  140.557;  -16.560;  834.660
956.452;  142.262;  -12.570;  953.840
957.008;  143.497;   -7.970; 1083.640
957.563;  140.321;  -11.940; 1009.540
958.118;  134.260;  -13.450;  877.700
958.674;  134.649;  -12.030;  946.780
959.229;  137.557;   -9.410; 1013.980
959.784;  134.838;  -12.000;  832.400
960.339;  133.693;  -14.780; 1001.280
960.894;  130.494;   -9.860;  963.760
961.449;  127.632;   -9.970;  859.960
962.004;  127.192;  -10.900; 1212.840
962.559;  120.820;  -13.150;  860.140
963.114;  118.209;  -13.740;  742.480
963.669;  118.427;   -9.820;  915.500
964.224;  117.446;  -13.890;  874.340
964.779;  115.389;  -12.600;  828.420
965.334;  116.894;  -10.950; 1017.860
965.888;  116.930;  -11.170;  875.360
966.443;  119.160;  -12.540;  972.380
966.998;  117.699;  -15.780;  819.460
967.552;  118.248;   -9.760;  908.380
968.107;  114.575;   -9.060;  868.300
968.661;  115.665;  -11.950;  922.440
969.216;  114.987;  -12.800;  856.280
969.770;  115.373;  -11.210;  917.200
970.324;  115.129;  -11.610;  923.140
970.879;  112.103;  -11.370;  947.180
971.433;  108.019;  -12.540;  952.720
971.987;  103.051;  -11.320;  895.340
972.541;  102.091;  -10.720;  917.100
973.095;  100.094;   -9.680; 1009.460
973.649;   98.075;  -11.440;  809.480
974.203;   97.678;  -11.210;  829.040
974.757;   98.659;  -10.240;  855.220
975.311;   98.168;  -13.720;  872.600
975.865;   97.004;  -13.770;  881.820
976.419;   95.791;  -11.690;  857.400
976.973;   96.083;   -9.510;  849.620
977.526;   97.886;  -12.620;  949.920
978.080;   96.359;  -12.010;  796.780
978.634;   97.452;  -10.170;  921.320
979.187;   96.064;   -9.020;  905.400
979.741;   93.819;   -9.820; 1018.380
980.294;   88.110;  -14.870;  789.160
980.848;   86.397;  -12.380;  717.220
981.401;   89.386;  -10.350;  816.540
981.955;   91.177;  -13.720;  844.300
982.508;   89.025;  -11.490;  746.340
983.061;   89.683;  -10.000;  915.260
983.615;   86.543;  -11.480;  798.800
984.168;   83.327;  -13.220;  770.080
984.721;   82.295;  -13.960;  880.760
985.274;   81.280;  -10.870;  867.500
985.827;   80.893;   -9.790;  834.220
986.380;   78.372;  -13.120;  721.340
986.933;   77.120;  -12.450;  864.800
987.486;   75.396;  -10.210;  861.920
988.039;   75.641;   -8.430;  863.100
988.591;   73.427;  -10.520;  893.260
989.144;   70.148;  -14.860;  737.260
989.697;   69.313;  -13.080;  758.740
990.250;   71.097;  -10.150;  858.100
990.802;   69.628;  -13.430;  755.860
991.355;   69.421;  -12.750;  974.880
991.907;   67.892;  -12.040;  864.320
992.460;   66.363;  -11.330;  753.760
993.012;   65.040;  -13.610;  749.540
993.565;   63.830;  -13.460;  711.360
994.117;   65.236;   -9.360;  950.780
994.669;   62.769;  -11.300;  701.320
995.221;   60.612;  -13.540;  791.920
995.774;   57.735;  -13.430;  787.580
996.326;   56.867;  -12.520;  740.220
996.878;   57.101;  -10.950;  838.420
997.430;   55.694;  -14.300;  699.860
997.982;   53.677;  -13.760;  750.140
998.534;   53.030;  -11.530;  739.060
999.086;   53.417;  -10.310;  738.220
999.638;   51.306;  -12.530;  661.380
1000.190;   50.008;  -11.840;  699.320
1000.741;   50.272;  -10.260;  742.700
1001.293;   50.475;   -8.860;  686.020
1001.845;   48.615;  -13.700;  676.640
1002.396;   48.443;  -12.100;  743.400
1002.948;   48.031;  -12.760;  737.400
1003.500;   47.307;  -10.380;  723.780
1004.051;   48.225;  -11.900;  907.580
1004.603;   45.318;  -12.250;  791.820
1005.154;   42.392;  -13.210;  608.980
1005.705;   42.384;  -10.950;  723.960
1006.257;   40.942;  -13.880;  707.220
1006.808;   39.720;  -12.840;  685.460
1007.359;   39.797;  -10.570;  763.240
1007.910;   39.354;   -9.620;  646.640
1008.461;   39.205;  -13.630;  732.940
1009.013;   37.176;  -17.200;  588.340
1009.564;   38.154;  -10.200;  793.520
1010.115;   37.217;  -12.570;  597.040
1010.665;   36.580;  -15.150;  602.160
1011.216;   35.654;  -14.480;  667.920
1011.767;   35.448;  -11.340;  697.920
1012.318;   36.345;   -9.780;  736.980
1012.869;   34.926;  -12.380;  679.000
1013.419;   33.152;  -15.560;  603.120
1013.970;   33.662;  -11.010;  666.640
1014.521;   34.340;  -11.610;  620.620
1015.071;   34.023;  -13.450;  670.380
1015.622;   33.223;  -13.870;  635.460
1016.172;   32.745;  -11.610;  596.820
1016.723;   33.394;  -12.120;  614.380
1017.273;   32.720;  -13.620;  604.160
1017.823;   32.260;  -14.140;  650.340
1018.374;   31.961;  -12.800;  611.760
1018.924;   32.763;  -12.340;  716.880
1019.474;   32.810;  -11.410;  718.880
1020.024;   30.955;  -14.770;  657.580
1020.574;   31.640;   -9.780;  726.160
1021.124;   32.224;   -8.560;  673.580
1021.674;   30.871;  -15.190;  559.120
1022.224;   31.343;  -13.530;  708.940
1022.774;   30.759;  -13.280;  668.820
1023.324;   32.219;  -10.690;  753.520
1023.874;   32.878;  -10.240;  875.760
1024.423;   29.560;  -12.540;  613.700
1024.973;   28.989;  -10.010;  610.760
1025.523;   29.029;  -10.550;  620.960
1026.072;   28.406;  -13.560;  606.420
1026.622;   28.169;  -15.120;  675.740
1027.172;   29.688;  -11.260;  715.660
1027.721;   28.774;  -11.410;  601.220
1028.270;   29.220;  -13.530;  663.400
1028.820;   28.038;  -13.680;  638.080
1029.369;   27.682;  -13.520;  612.700
1029.918;   28.762;  -10.980;  649.840
1030.468;   28.036;  -13.530;  564.780
1031.017;   27.564;  -13.170;  634.800
1031.566;   26.339;  -12.200;  608.900
1032.115;   28.455;   -9.960;  694.500
1032.664;   26.238;  -13.210;  596.480
1033.213;   26.917;  -12.500;  735.420
1033.762;   25.801;  -11.910;  635.620
1034.311;   26.642;   -9.640;  677.220
1034.860;   27.000;  -13.310;  691.000
1035.408;   26.017;  -11.830;  722.720
1035.957;   26.228;  -12.000;  719.540
1036.506;   25.704;  -11.690;  530.800
1037.055;   26.985;  -10.990;  844.320
1037.603;   24.854;  -15.120;  664.000
1038.152;   23.787;  -12.450;  534.760
1038.700;   25.057;  -10.560;  585.740
1039.249;   24.066;  -11.080;  681.220
1039.797;   24.457;  -12.540;  633.360
1040.345;   24.782;  -11.920;  705.420
1040.894;   25.177;  -11.410;  625.300
1041.442;   24.635;  -14.320;  632.200
1041.990;   22.243;  -16.240;  559.160
1042.538;   22.583;  -11.680;  536.180
1043.087;   23.289;  -10.760;  570.860
1043.635;   24.232;  -11.850;  670.500
1044.183;   22.086;  -15.480;  586.400
1044.731;   22.311;  -11.770;  576.000
1045.279;   22.791;  -13.090;  674.920
1045.827;   24.175;  -12.440;  892.400
1046.374;   21.647;  -13.840;  515.420
1046.922;   20.540;  -13.220;  590.580
1047.470;   23.521;  -10.230;  691.300
1048.018;   22.985;  -14.590;  647.960
1048.565;   22.447;  -12.050;  708.600
1049.113;   20.789;  -11.650;  557.000
1049.660;   21.239;  -10.510;  629.660
1050.208;   22.442;  -13.310;  675.640
1050.755;   20.239;  -15.900;  606.580
1051.303;   21.241;  -11.430;  686.820
1051.850;   20.875;   -8.480;  635.120
1052.397;   19.526;  -15.010;  473.960
1052.945;   18.982;  -13.960;  617.760
1053.492;   21.069;  -13.150;  741.840
1054.039;   21.760;   -9.630;  720.180
1054.586;   19.815;  -13.680;  557.240
1055.133;   19.929;  -14.570;  693.140
1055.680;   20.688;  -13.820;  646.620
1056.227;   20.188;  -11.730;  542.780
1056.774;   21.233;  -12.480;  794.980
1057.321;   18.808;  -13.930;  523.260
1057.868;   17.992;  -11.690;  651.320
1058.415;   19.323;   -9.520;  651.980
1058.961;   20.332;  -13.160;  678.940
1059.508;   18.633;  -12.920;  643.820
1060.055;   17.501;  -11.920;  581.780
1060.601;   19.942;  -11.500;  624.300
1061.148;   18.661;  -14.330;  616.820
1061.694;   17.657;  -16.870;  592.580
1062.241;   17.524;  -10.330;  596.320
1062.787;   18.463;  -10.620;  663.140
1063.334;   20.847;  -10.110;  808.560
1063.880;   18.064;  -13.400;  668.360
1064.426;   17.608;  -10.680;  706.820
1064.972;   17.858;   -9.920;  601.340
1065.518;   16.963;  -10.980;  566.640
1066.065;   17.119;  -14.890;  624.460
1066.611;   16.096;  -12.870;  598.800
1067.157;   17.443;  -12.950;  641.860
1067.703;   17.819;  -13.540;  668.480
1068.249;   16.528;  -13.540;  605.220
1068.794;   16.603;  -12.600;  626.880
1069.340;   16.449;  -10.620;  578.960
1069.886;   16.407;  -12.830;  590.700
1070.432;   14.927;  -14.870;  541.720
1070.977;   15.409;  -11.980;  601.080
1071.523;   16.574;   -8.200;  573.060
1072.068;   16.015;  -12.330;  582.000
1072.614;   15.401;  -16.370;  527.760
1073.160;   15.853;  -11.100;  687.040
1073.705;   14.473;  -10.480;  572.520
1074.250;   15.321;  -14.520;  559.900
1074.796;   15.909;  -11.460;  655.160
1075.341;   15.489;  -11.950;  664.100
1075.886;   15.597;  -11.460;  594.240
1076.431;   14.848;  -13.770;  649.880
1076.976;   13.780;  -12.680;  639.220
1077.521;   13.370;  -13.170;  583.080
1078.067;   13.700;  -10.860;  579.400
1078.612;   15.273;  -13.920;  661.620
1079.156;   14.013;  -13.880;  601.540
1079.701;   13.881;  -13.120;  693.260
1080.246;   15.307;   -9.940;  696.300
1080.791;   15.551;  -14.740;  625.020
1081.336;   14.187;  -13.750;  659.320
1081.880;   13.610;  -13.400;  649.680
1082.425;   13.329;  -12.220;  573.480
1082.970;   15.213;  -11.610;  717.040
1083.514;   12.670;  -13.580;  597.000
1084.059;   12.095;  -12.810;  586.720
1084.603;   12.531;  -12.320;  565.840
1085.147;   13.674;  -13.190;  645.220
1085.692;   13.107;  -12.480;  716.800
1086.236;   12.059;  -13.020;  503.140
1086.780;   13.995;   -9.190;  751.440
1087.325;   13.739;  -12.480;  654.620
1087.869;   12.501;  -12.450;  610.700
1088.413;   12.326;  -12.240;  705.040
1088.957;   11.612;   -9.020;  543.400
1089.501;   13.942;  -10.320;  766.640
1090.045;   11.721;  -12.720;  726.480
1090.589;    9.924;  -13.690;  569.920
1091.133;   11.552;  -10.020;  673.340
1091.676;   12.906;  -12.330;  591.940
1092.220;   10.555;  -14.970;  600.920
1092.764;   11.915;  -12.430;  706.960
1093.307;   12.149;   -9.800;  673.780
1093.851;   11.008;  -14.970;  556.540
1094.395;   11.331;  -15.310;  683.140
1094.938;    9.885;  -10.370;  632.520
1095.482;   11.677;  -11.050;  559.800
1096.025;   11.505;  -11.840;  710.880
1096.568;   11.727;  -12.840;  779.280
1097.112;    8.591;  -14.700;  508.180
1097.655;   11.637;   -8.720;  603.000
1098.198;    9.759;  -13.610;  600.180
1098.741;    8.776;  -13.350;  612.860
1099.285;   10.441;  -11.230;  657.300
1099.828;    9.289;  -11.840;  439.400
1100.371;   10.590;  -10.840;  608.160
1100.914;    9.568;  -14.190;  682.660
1101.457;    9.150;  -11.240;  679.900
1101.999;    8.724;  -11.270;  584.680
1102.542;    9.759;  -11.480;  641.440
1103.085;    9.395;  -11.750;  658.500
1103.628;    9.396;  -11.400;  762.060
1104.170;    9.528;  -10.490;  588.280
1104.713;    8.984;  -10.600;  646.700
1105.256;    7.698;  -14.360;  557.440
1105.798;    6.784;  -13.210;  499.980
1106.341;   10.265;  -10.270;  728.900
1106.883;    8.969;  -12.200;  521.340
1107.425;    8.244;  -13.110;  668.180
1107.968;    7.935;  -12.840;  612.380
1108.510;    9.255;   -6.480;  684.960
1109.052;    7.703;  -13.940;  612.620
1109.594;    7.621;  -13.690;  554.440
1110.136;    8.055;  -11.880;  643.220
1110.679;    7.918;   -9.500;  633.080
1111.221;    8.739;  -14.160;  604.460
1111.763;    6.639;  -13.980;  559.220
1112.304;    6.227;  -13.880;  547.140
1112.846;    8.418;  -12.210;  666.240
1113.388;   10.260;  -11.390;  942.180
1113.930;    6.755;  -14.540;  694.200
1114.472;    5.906;  -12.640;  606.540
1115.013;    6.256;  -11.620;  551.280
1115.555;    6.037;  -13.640;  587.100
1116.097;    5.594;  -15.380;  579.480
1116.638;    5.932;  -12.640;  684.600
1117.180;    7.501;   -9.850;  667.740
1117.721;    7.279;  -13.690;  568.580
1118.262;    6.826;  -12.680;  677.960
1118.804;    6.680;  -12.530;  637.340
1119.345;    5.769;  -11.690;  578.400
1119.886;    7.575;  -13.380;  704.040
1120.427;    5.369;  -14.070;  589.020
1120.969;    5.444;  -13.500;  597.920
1121.510;    5.117;  -11.480;  563.060
1122.051;    7.053;  -12.830;  723.580
1122.592;    5.680;  -14.290;  655.420
1123.133;    3.111;  -12.400;  547.940
1123.673;    6.849;  -10.130;  706.480
1124.214;    5.550;  -12.930;  612.460
1124.755;    5.816;  -14.380;  639.460
1125.296;    5.078;  -14.000;  627.320
1125.836;    6.759;  -10.070;  691.500
1126.377;    5.025;  -12.640;  599.660
1126.918;    5.283;  -12.960;  614.980
1127.458;    3.759;  -13.350;  622.220
1127.999;    5.405;  -10.750;  656.980
1128.539;    5.677;  -12.350;  694.240
1129.079;    4.681;  -14.860;  632.720
1129.620;    2.992;  -13.840;  558.100
1130.160;    4.351;  -12.330;  539.480
1130.700;    4.728;  -14.530;  640.840
1131.240;    5.163;  -12.530;  643.700
1131.781;    3.464;  -14.450;  619.680
1132.321;    4.326;   -9.790;  599.120
1132.861;    3.338;  -14.860;  564.200
1133.401;    1.993;  -14.290;  593.940
1133.941;    2.981;  -11.750;  626.280
1134.481;    3.463;   -9.920;  597.580
1135.020;    3.391;  -12.290;  609.160
1135.560;    3.509;  -11.650;  674.940
1136.100;    2.111;  -16.270;  501.160
1136.640;    2.412;  -10.890;  510.480
1137.179;    3.670;  -14.180;  537.960
1137.719;    3.446;  -16.250;  605.400
1138.258;    2.514;  -14.230;  587.360
1138.798;    4.002;   -9.090;  663.780
1139.337;    2.513;  -15.130;  482.840
1139.877;    2.925;  -13.680;  642.360
1140.416;    4.155;  -11.320;  878.060
1140.955;    2.335;  -10.860;  535.380
1141.494;    2.830;  -12.920;  669.280
1142.034;    2.185;  -13.930;  583.520
1142.573;    2.956;  -11.440;  646.280
1143.112;    2.010;  -12.000;  553.480
1143.651;    2.402;  -13.670;  536.480
1144.190;    2.129;  -12.730;  691.640
1144.729;    1.614;  -14.560;  607.420
1145.267;    2.134;  -11.830;  584.900
1145.806;    3.270;  -12.230;  637.040
1146.345;    0.392;  -14.130;  635.020
1146.884;    1.027;  -11.590;  622.500
1147.422;    0.967;  -12.550;  533.060
1147.961;    3.669;  -11.180;  708.460
1148.500;    2.492;  -11.510;  669.720
1149.038;    2.162;  -11.640;  632.500
1149.577;    2.380;  -10.130;  698.640
1150.115;    0.663;  -13.970;  452.280
1150.653;    0.985;  -14.520;  607.340
1151.192;    0.646;  -12.810;  552.920
1151.730;    1.214;   -9.100;  652.560
1152.268;    0.694;  -12.220;  589.520
1152.806;    0.049;  -14.140;  571.180
1153.344;   -1.132;  -12.350;  577.640
1153.882;    1.129;   -8.980;  600.060
1154.421;    0.234;  -15.190;  470.620
1154.958;    0.187;  -15.210;  595.240
1155.496;    1.110;  -12.850;  645.280
1156.034;    1.510;   -9.940;  721.880
1156.572;    1.809;  -13.570;  667.060
1157.110;   -0.871;  -14.590;  473.940
1157.647;    0.710;  -13.030;  676.960
1158.185;    0.337;  -12.140;  564.320
1158.723;   -0.626;  -14.390;  509.200
1159.260;   -0.042;  -14.090;  701.700
1159.798;    0.034;  -11.920;  658.160
1160.335;    0.180;  -11.110;  631.820

