
Integration time [ms]:   3.882
Averaging Nr. [scans]: 1000
Smoothing Nr. [pixels]: 0
Data measured with spectrometer [name]: 7414430SP
Wave   ;Sample   ;Dark     ;Reference
[nm]   ;[counts] ;[counts] ;[counts] 

288.544;  123.134;   10.292;  793.890
289.143;  126.214;    4.564;  681.602
289.742;  127.880;    6.144;  828.814
290.341;  116.495;    4.396;  789.841
290.940;  106.481;    0.938;  730.702
291.538;  107.793;   -0.684;  881.108
292.137;  106.045;   -2.845;  792.581
292.736;  109.940;   -0.144;  975.101
293.335;  105.093;   -6.352;  735.086
293.934;  106.326;   -7.642;  781.677
294.532;  107.597;   -4.992; 1031.958
295.131;   94.470;   -5.478;  834.394
295.730;   93.428;   -6.549;  809.588
296.328;   91.553;   -9.558;  783.442
296.927;   91.185;   -8.118;  779.652
297.525;   92.945;   -6.908;  781.236
298.124;   82.818;   -9.195;  654.009
298.722;   88.830;   -8.198;  761.933
299.321;   86.538;   -8.817;  708.597
299.919;   84.675;   -7.716;  751.918
300.518;   79.631;  -10.745;  689.338
301.116;   82.030;   -9.647;  691.381
301.715;   83.224;  -10.828;  730.222
302.313;   82.177;   -6.087;  704.943
302.911;   76.755;   -6.824;  733.830
303.509;   82.454;   -8.807;  925.627
304.108;   80.459;   -8.198;  760.383
304.706;   80.051;   -6.218;  801.664
305.304;   74.381;   -7.185;  796.707
305.902;   80.031;   -8.568;  784.484
306.500;   76.192;   -7.737;  728.200
307.098;   74.349;   -6.026;  746.560
307.696;   72.499;   -7.176;  780.432
308.294;   73.916;   -8.656;  731.359
308.892;   76.154;   -6.838;  759.769
309.490;   71.472;   -2.596;  712.161
310.088;   70.324;   -4.485;  788.444
310.686;   75.061;   -3.907;  821.749
311.284;   71.403;   -2.806;  766.040
311.882;   68.404;   -2.845;  731.225
312.480;   65.142;   -3.274;  697.167
313.078;   66.642;   -3.645;  808.331
313.675;   68.152;   -4.997;  691.600
314.273;   62.682;   -0.894;  797.837
314.871;   62.604;   -2.854;  589.829
315.468;   60.938;   -3.644;  652.090
316.066;   63.936;   -3.947;  694.427
316.664;   57.333;   -1.824;  656.351
317.261;   62.238;    1.565;  910.128
317.859;   57.976;   -3.955;  768.735
318.456;   59.169;   -2.886;  830.096
319.054;   55.788;   -0.995;  787.828
319.651;   54.206;   -1.765;  759.928
320.249;   53.267;   -3.685;  810.188
320.846;   51.722;   -3.736;  714.286
321.443;   49.156;   -2.065;  832.135
322.041;   47.125;   -5.635;  812.315
322.638;   45.996;   -5.985;  701.456
323.235;   48.051;   -6.677;  665.683
323.833;   45.060;   -3.497;  740.354
324.430;   40.488;   -6.756;  615.900
325.027;   42.020;   -7.647;  876.855
325.624;   43.437;   -7.598;  644.532
326.221;   40.952;   -5.848;  689.717
326.818;   40.358;   -5.777;  818.332
327.415;   42.429;   -8.769;  748.828
328.012;   42.041;   -6.299;  690.585
328.609;   40.519;   -6.639;  731.389
329.206;   37.738;   -6.358;  778.621
329.803;   37.127;   -8.698;  737.841
330.400;   39.501;   -8.379;  704.260
330.997;   40.302;   -6.178;  817.147
331.594;   36.696;   -5.646;  788.185
332.191;   41.548;   -6.928;  728.722
332.787;   42.384;   -6.057;  844.463
333.384;   40.600;   -6.445;  763.093
333.981;   39.007;   -8.002;  815.687
334.578;   40.564;   -8.443;  708.378
335.174;   43.000;   -6.053;  731.469
335.771;   43.851;   -5.791;  836.456
336.367;   39.860;   -6.570;  710.631
336.964;   41.420;   -6.741;  793.266
337.561;   42.042;   -5.710;  731.112
338.157;   38.458;   -3.928;  911.916
338.754;   36.231;   -5.577;  796.589
339.350;   34.408;   -9.667;  722.493
339.946;   38.327;   -5.269;  773.135
340.543;   30.189;   -4.485;  846.136
341.139;   25.304;   -7.584;  720.836
341.735;   24.141;   -8.553;  772.593
342.332;   23.353;   -4.984;  691.472
342.928;   24.353;   -3.475;  795.394
343.524;   18.942;   -6.653;  761.684
344.120;   15.669;   -7.173;  738.562
344.716;   19.150;   -4.385;  723.717
345.313;   16.477;   -3.565;  795.342
345.909;   12.744;   -7.495;  627.336
346.505;   14.570;   -8.276;  740.247
347.101;   15.549;   -5.697;  827.864
347.697;   15.971;   -4.767;  785.398
348.293;   10.403;   -7.226;  627.244
348.889;   10.934;   -7.547;  745.914
349.485;   10.841;   -9.147;  688.205
350.081;   12.372;   -6.568;  772.592
350.676;    6.609;   -6.516;  691.606
351.272;   12.071;   -7.378;  809.530
351.868;   11.527;   -6.759;  780.497
352.464;    8.613;   -4.798;  723.932
353.059;    5.102;   -7.977;  646.017
353.655;    8.427;   -8.769;  777.063
354.251;    9.771;   -5.920;  759.845
354.846;    5.421;   -7.647;  740.646
355.442;    1.983;   -6.956;  753.071
356.038;    4.437;   -9.928;  751.708
356.633;    4.939;   -7.698;  728.594
357.229;    2.744;   -6.307;  724.757
357.824;    1.123;   -7.647;  703.600
358.420;   -0.065;  -10.047;  679.726
359.015;    1.211;   -7.458;  695.357
359.610;    3.115;   -5.748;  763.920
360.206;   -4.226;   -9.346;  603.240
360.801;   -0.744;  -11.268;  646.503
361.396;    2.167;   -8.789;  725.975
361.992;   -2.314;   -6.347;  668.220
362.587;   -5.636;   -6.476;  670.160
363.182;   -3.998;   -9.457;  689.631
363.777;   -2.433;   -7.147;  738.242
364.372;   -2.254;   -5.507;  737.314
364.967;   -6.577;   -6.386;  680.744
365.563;   -1.846;   -7.858;  815.567
366.158;   -3.853;   -8.517;  685.161
366.753;   -4.172;   -8.728;  649.263
367.348;   -5.434;   -7.677;  746.056
367.942;   -6.472;  -10.387;  697.298
368.537;   -6.065;   -7.187;  754.245
369.132;   -5.772;   -8.587;  703.428
369.727;  -10.401;   -8.606;  638.079
370.322;   -8.995;  -10.426;  580.186
370.917;   -7.957;   -5.776;  710.646
371.511;   -5.359;   -6.007;  861.834
372.106;   -9.255;   -6.686;  776.964
372.701;  -12.458;   -9.335;  585.988
373.296;   -6.047;   -6.777;  863.135
373.890;  -11.401;   -7.546;  647.840
374.485;  -13.519;   -8.755;  691.199
375.079;   -9.025;   -9.797;  738.685
375.674;   -8.164;   -6.327;  812.970
376.268;  -11.813;   -9.046;  691.759
376.863;  -18.153;   -7.993;  580.327
377.457;  -11.377;   -9.206;  662.490
378.052;  -12.511;   -5.345;  764.884
378.646;  -13.401;   -5.605;  741.167
379.240;  -14.196;   -6.825;  721.176
379.835;  -13.749;  -10.476;  636.978
380.429;  -15.532;   -8.676;  562.557
381.023;  -14.028;   -4.945;  779.205
381.617;  -17.798;   -8.094;  680.106
382.212;  -14.976;  -10.646;  685.303
382.806;  -12.515;   -8.136;  760.690
383.400;  -16.782;   -7.855;  672.281
383.994;  -18.162;   -8.125;  664.870
384.588;  -13.884;   -7.637;  697.701
385.182;  -12.430;   -7.458;  726.624
385.776;  -13.677;   -6.277;  706.875
386.370;  -17.435;   -7.485;  681.968
386.964;  -15.662;   -9.416;  684.155
387.558;  -14.054;   -8.518;  598.360
388.152;  -17.988;   -7.096;  681.959
388.745;  -15.547;   -7.656;  814.707
389.339;  -13.740;   -8.927;  747.642
389.933;  -12.675;   -9.538;  695.370
390.527;  -13.427;   -5.857;  859.029
391.120;  -19.573;   -9.455;  595.318
391.714;  -16.986;   -9.746;  711.633
392.308;  -13.480;   -7.857;  780.253
392.901;  -17.033;   -9.106;  642.460
393.495;  -19.393;  -10.365;  595.414
394.089;  -16.263;   -9.696;  760.452
394.682;  -18.125;   -7.016;  697.188
395.275;  -17.351;   -8.466;  719.927
395.869;  -18.723;   -8.985;  667.314
396.462;  -17.863;  -11.496;  616.609
397.056;  -13.401;   -7.838;  776.621
397.649;  -18.432;   -6.895;  731.575
398.242;  -15.080;   -5.017;  712.645
398.836;  -14.792;   -8.787;  766.408
399.429;  -15.548;   -8.967;  631.041
400.022;  -19.353;   -8.815;  665.902
400.615;  -16.323;   -6.276;  805.609
401.208;  -15.410;   -8.407;  691.451
401.802;  -16.783;   -7.296;  699.329
402.395;  -18.103;   -7.585;  683.502
402.988;  -19.250;   -8.015;  696.627
403.581;  -15.693;   -9.577;  646.878
404.174;  -12.781;   -7.588;  686.568
404.767;  -16.456;   -7.906;  638.583
405.360;  -19.194;   -7.875;  621.445
405.953;  -13.252;   -8.127;  759.034
406.545;  -12.080;   -7.198;  725.342
407.138;  -16.642;   -8.916;  618.350
407.731;  -15.640;   -9.767;  613.303
408.324;  -11.688;  -10.659;  660.554
408.917;  -12.269;   -8.068;  681.864
409.509;  -14.141;   -9.837;  740.396
410.102;  -16.808;   -8.146;  643.948
410.695;  -10.642;   -7.969;  665.758
411.287;  -10.804;   -8.579;  599.821
411.880;  -12.220;   -6.968;  585.421
412.472;  -15.260;   -9.487;  613.092
413.065;  -12.999;  -10.338;  629.408
413.657;  -10.072;   -9.169;  576.678
414.250;   -9.824;  -10.119;  646.681
414.842;  -12.032;   -9.938;  676.353
415.434;   -9.399;  -10.409;  570.463
416.027;   -5.376;   -9.591;  652.196
416.619;   -7.081;   -7.379;  713.400
417.211;   -8.005;   -9.159;  599.352
417.804;   -3.709;   -9.191;  628.499
418.396;   -7.506;   -8.159;  607.643
418.988;   -5.482;   -6.960;  659.238
419.580;   -9.130;  -11.389;  568.276
420.172;   -7.554;  -13.460;  536.196
420.764;   -2.175;  -10.701;  672.482
421.356;   -3.879;   -8.961;  636.898
421.948;   -4.875;   -9.770;  677.661
422.540;    1.130;   -8.832;  680.027
423.132;   -0.015;   -8.153;  600.641
423.724;   -3.590;   -8.481;  561.267
424.316;   -1.993;   -9.261;  621.345
424.908;    2.693;   -9.643;  591.517
425.500;    3.506;   -8.663;  647.978
426.092;    3.258;   -8.503;  648.268
426.683;    2.629;  -10.522;  684.836
427.275;    5.385;  -11.734;  641.471
427.867;    6.403;  -10.264;  668.948
428.458;    7.372;   -7.644;  732.344
429.050;    5.381;   -7.853;  680.749
429.642;    7.224;   -8.904;  743.124
430.233;    7.514;  -10.795;  569.356
430.825;    9.533;   -7.665;  724.809
431.416;    6.890;   -8.843;  698.241
432.008;   11.213;   -9.885;  651.723
432.599;   11.614;   -9.966;  656.073
433.190;    7.909;   -9.164;  637.670
433.782;    7.373;   -8.584;  590.395
434.373;   15.293;   -8.296;  884.765
434.964;   14.194;   -9.896;  602.920
435.556;   11.208;   -8.255;  634.537
436.147;   14.798;   -8.075;  758.490
436.738;   14.081;   -9.716;  701.099
437.329;   20.060;   -7.318;  721.723
437.920;   12.947;   -6.694;  666.688
438.511;   12.435;   -9.644;  564.526
439.103;   18.646;   -9.427;  623.998
439.694;   21.234;  -10.748;  681.583
440.285;   22.746;   -7.997;  764.432
440.876;   20.695;  -10.046;  845.738
441.466;   19.685;  -13.467;  575.162
442.057;   25.950;   -9.329;  665.814
442.648;   23.433;   -7.707;  746.255
443.239;   21.363;   -9.017;  620.477
443.830;   27.139;  -10.279;  704.958
444.421;   29.245;  -12.630;  655.474
445.011;   24.861;   -8.697;  693.619
445.602;   25.295;   -7.787;  743.126
446.193;   26.517;  -13.329;  488.117
446.783;   32.363;   -9.171;  640.397
447.374;   27.245;   -7.457;  692.759
447.964;   26.890;   -9.277;  713.770
448.555;   35.890;   -9.041;  822.742
449.145;   32.349;   -8.969;  662.853
449.736;   32.974;   -6.809;  803.179
450.326;   32.958;   -7.229;  713.626
450.917;   37.588;  -11.391;  675.324
451.507;   36.774;   -9.501;  600.661
452.097;   38.557;   -8.460;  746.267
452.688;   38.662;  -10.080;  742.160
453.278;   38.576;  -12.861;  566.840
453.868;   43.710;   -8.372;  793.550
454.458;   40.802;   -8.131;  651.141
455.048;   41.086;   -8.520;  711.783
455.639;   42.758;  -13.632;  567.096
456.229;   46.803;  -10.143;  710.694
456.819;   48.637;   -9.163;  751.158
457.409;   49.119;   -8.652;  773.993
457.999;   51.416;   -9.933;  737.505
458.589;   52.449;  -10.363;  686.606
459.179;   51.996;  -10.633;  717.658
459.769;   49.528;  -12.442;  627.099
460.358;   54.577;   -9.844;  797.262
460.948;   54.283;   -9.924;  689.503
461.538;   55.877;  -10.484;  660.677
462.128;   53.608;  -10.703;  664.934
462.717;   59.351;  -11.486;  710.326
463.307;   64.103;  -10.767;  705.846
463.897;   59.466;   -8.814;  656.942
464.486;   58.924;   -8.182;  837.128
465.076;   63.582;   -9.985;  733.776
465.666;   66.803;  -10.447;  652.900
466.255;   64.827;   -7.754;  785.651
466.845;   63.827;  -10.884;  666.749
467.434;   66.071;  -12.525;  725.873
468.023;   68.572;  -11.456;  658.357
468.613;   65.071;   -9.173;  713.946
469.202;   68.591;   -9.306;  646.507
469.791;   73.707;   -8.917;  737.811
470.381;   75.818;   -9.657;  742.813
470.970;   75.132;   -9.947;  711.099
471.559;   74.754;   -9.256;  733.291
472.148;   77.721;  -13.397;  675.737
472.738;   80.768;   -9.928;  765.466
473.327;   80.258;  -10.897;  637.529
473.916;   79.834;   -8.526;  737.446
474.505;   83.677;  -11.078;  751.703
475.094;   88.464;   -9.559;  806.570
475.683;   86.912;   -8.838;  797.699
476.272;   88.012;  -10.198;  730.632
476.861;   89.979;  -11.489;  706.754
477.449;   96.832;  -10.721;  728.487
478.038;   91.258;   -9.818;  692.513
478.627;   92.267;   -9.887;  714.852
479.216;   98.886;  -10.030;  769.441
479.805;  101.905;   -9.401;  783.375
480.393;  103.268;   -5.739; 1008.945
480.982;  100.998;   -7.838;  874.501
481.571;  107.989;   -9.111;  858.333
482.159;  107.793;  -10.601;  705.386
482.748;  107.970;   -8.500;  821.385
483.336;  112.810;   -9.241;  858.209
483.925;  113.334;  -10.440;  774.373
484.513;  119.980;  -11.063;  758.962
485.102;  116.828;   -9.540;  810.965
485.690;  125.639;   -6.742; 1011.050
486.278;  127.332;   -8.442;  979.329
486.867;  128.228;  -10.472;  809.662
487.455;  129.750;   -8.811;  898.229
488.043;  130.346;  -10.721;  748.361
488.631;  140.637;  -10.393; 1005.079
489.220;  144.681;  -10.843;  908.626
489.808;  144.287;  -10.572;  741.415
490.396;  153.439;  -10.482;  914.645
490.984;  159.678;  -11.542;  830.161
491.572;  169.735;   -8.463;  940.315
492.160;  177.886;   -8.491;  919.081
492.748;  188.279;   -9.681;  884.341
493.336;  211.777;  -10.493; 1019.693
493.924;  241.720;   -9.354;  958.077
494.512;  277.041;   -9.132; 1066.638
495.100;  318.636;   -9.001; 1103.280
495.687;  375.441;  -11.924; 1206.373
496.275;  455.416;  -11.193; 1150.796
496.863;  540.600;   -9.241; 1281.171
497.451;  650.906;  -11.341; 1386.805
498.038;  778.267;  -11.364; 1556.729
498.626;  890.131;   -8.104; 1741.407
499.214; 1086.447;   -8.842; 2016.609
499.801; 1349.966;  -10.112; 2220.633
500.389; 1567.115;  -11.953; 2312.494
500.976; 1748.342;  -10.023; 2744.849
501.564; 1997.678;   -8.662; 3148.565
502.151; 2382.504;  -10.531; 3515.999
502.738; 2833.865;  -13.853; 3971.274
503.326; 3354.309;  -10.794; 4403.796
503.913; 3870.462;   -8.663; 5161.749
504.500; 4387.090;  -10.172; 5986.420
505.088; 5262.813;  -13.472; 6381.201
505.675; 5901.563;  -10.924; 6925.547
506.262; 6096.998;   -8.551; 7619.060
506.849; 6811.759;  -10.523; 8733.969
507.436; 7852.649;  -10.834; 9790.121
508.023; 8241.767;   -9.093; 9985.472
508.610; 8595.324;  -10.073;10434.618
509.197; 9752.525;   -9.500;11198.435
509.784;11580.614;  -13.242;12391.194
510.371;12430.813;  -10.964;13603.713
510.958;13039.370;   -9.772;14426.586
511.545;13534.877;   -7.842;15243.775
512.132;13625.640;  -12.184;15945.876
512.719;15124.510;   -9.733;16340.369
513.305;17727.014;   -9.172;18011.766
513.892;18884.754;   -9.581;19754.971
514.479;19709.842;  -10.253;20967.805
515.066;20166.912;   -8.183;22299.793
515.652;21211.059;   -9.253;22908.660
516.239;22815.377;   -9.412;23798.875
516.825;24162.836;  -11.153;25567.275
517.412;23718.678;  -10.263;28154.959
517.998;23131.600;   -8.802;28344.111
518.585;23333.738;  -10.401;27134.219
519.171;23788.531;  -12.744;27268.576
519.758;25547.121;  -11.793;28964.129
520.344;28522.373;   -8.912;30664.494
520.930;31135.119;  -10.901;32550.605
521.516;30627.748;  -12.034;35422.895
522.103;31380.900;  -10.473;38280.004
522.689;33412.586;   -8.311;37835.117
523.275;35275.516;  -10.691;37288.613
523.861;36190.684;  -11.193;37281.395
524.447;33803.078;  -11.484;37846.949
525.033;33921.992;   -7.702;38321.949
525.619;34278.578;  -11.241;38579.285
526.205;34551.391;  -12.152;40622.875
526.791;35530.688;  -11.423;42258.836
527.377;36121.648;   -7.981;42966.902
527.963;36121.855;   -9.450;42018.949
528.549;36553.813;  -11.351;42476.828
529.135;37540.090;  -10.202;41854.852
529.721;37980.520;   -8.672;41237.711
530.306;36773.480;   -9.111;41259.445
530.892;38342.199;  -11.252;41506.047
531.478;40857.551;  -10.432;43559.613
532.063;42569.223;  -10.721;47695.563
532.649;43982.887;   -7.450;50808.324
533.235;45218.809;  -11.811;51787.500
533.820;44470.363;   -9.383;52145.035
534.406;41983.934;   -9.400;51133.488
534.991;41305.574;   -8.861;49996.805
535.576;42487.086;  -10.612;48882.852
536.162;40126.707;   -7.322;46942.285
536.747;40063.410;   -9.360;45711.746
537.333;42297.105;  -10.450;48510.180
537.918;45316.223;  -12.610;50439.891
538.503;45578.176;  -12.132;50863.711
539.088;42997.137;  -10.831;50906.922
539.673;43140.883;  -11.220;52621.965
540.259;45856.305;  -11.481;52368.094
540.844;45887.211;  -11.462;50879.109
541.429;47635.430;   -7.869;52077.777
542.014;45972.523;  -11.859;52716.695
542.599;43697.191;  -11.061;52363.281
543.184;44213.211;  -12.300;53187.137
543.769;45815.246;   -9.369;54697.605
544.354;46406.977;  -12.020;53913.914
544.938;42232.723;  -10.350;49680.164
545.523;39203.441;  -10.841;47386.277
546.108;42380.777;   -8.579;49151.949
546.693;45092.969;   -8.818;51384.637
547.278;45819.215;  -11.331;51853.254
547.862;45139.941;  -10.292;51173.750
548.447;44668.355;   -8.349;51691.395
549.031;44316.742;  -10.838;52456.703
549.616;45406.430;  -11.681;52714.516
550.201;47345.098;  -11.140;52414.598
550.785;45231.551;   -8.649;52355.059
551.370;46212.922;  -11.889;54589.453
551.954;46948.465;  -11.239;58267.348
552.538;48396.285;   -8.850;59062.176
553.123;50344.898;  -10.829;58115.285
553.707;50921.031;   -8.887;56556.285
554.291;48184.523;  -10.430;56201.668
554.876;47454.461;   -9.799;55335.762
555.460;44706.293;  -10.018;54155.703
556.044;44375.828;   -7.307;53721.484
556.628;47628.828;  -12.229;53731.016
557.212;48447.367;   -9.820;54312.531
557.796;46575.590;   -9.109;53797.773
558.380;43995.816;   -9.707;56145.984
558.964;46107.918;  -10.980;57277.930
559.548;49363.402;  -12.010;56459.641
560.132;50224.086;   -7.928;54434.543
560.716;53364.188;  -10.247;54800.617
561.300;53935.883;  -11.250;57606.945
561.884;51831.840;  -10.568;58972.445
562.467;49566.426;   -9.727;57327.570
563.051;45785.988;  -11.847;54962.434
563.635;44911.258;  -10.747;52594.473
564.219;43510.656;  -13.108;50610.410
564.802;41712.273;  -11.417;49551.180
565.386;39907.480;  -10.457;48370.953
565.969;42560.633;   -8.959;48178.871
566.553;43051.168;  -10.328;49957.305
567.136;42185.914;  -10.257;50369.594
567.720;40469.027;  -10.186;49492.004
568.303;38716.387;  -10.027;50616.352
568.887;38766.992;  -10.397;50727.148
569.470;41044.031;   -8.185;51698.379
570.053;41348.262;  -11.596;52122.078
570.637;40623.711;  -11.378;52536.438
571.220;40732.852;   -9.138;51186.098
571.803;40282.816;   -7.675;51032.762
572.386;39547.762;   -8.976;49609.887
572.969;40612.660;  -12.477;48285.926
573.552;40529.461;   -9.767;47624.285
574.135;38698.820;   -8.175;45498.641
574.718;34373.383;  -11.096;41970.434
575.301;33604.543;  -11.966;41447.137
575.884;32835.699;  -12.836;40923.836
576.467;38425.910;   -9.116;45267.723
577.050;40704.797;  -10.536;48175.543
577.633;39958.555;  -11.027;47729.328
578.216;38677.566;   -9.946;47579.793
578.799;38832.836;   -9.645;47820.996
579.381;38177.332;   -9.446;48115.551
579.964;37939.816;  -12.217;47333.766
580.547;38615.578;  -10.586;46668.969
581.129;38409.426;   -8.374;44466.141
581.712;37621.133;  -10.434;44164.922
582.294;37018.152;  -10.896;46477.855
582.877;37715.633;   -8.906;48244.254
583.459;37776.027;   -9.994;47437.895
584.042;36712.434;  -10.084;46943.219
584.624;35310.711;  -13.534;46792.227
585.206;35232.387;  -12.716;46557.250
585.789;35825.688;  -11.614;45793.773
586.371;35693.770;  -10.203;43836.391
586.953;34044.043;  -10.314;42972.492
587.536;32156.021;   -9.776;42487.211
588.118;32429.715;   -9.821;42086.414
588.700;33489.363;  -10.073;43389.930
589.282;35159.094;  -12.395;43646.039
589.864;35261.844;  -11.514;43438.109
590.446;35567.156;  -10.803;43151.926
591.028;36757.242;  -11.043;42781.867
591.610;36164.609;  -13.244;42839.098
592.192;33264.789;  -11.095;42820.402
592.774;30914.105;  -10.823;40724.277
593.356;30457.088;  -11.052;39874.789
593.937;31762.072;  -11.664;39980.648
594.519;33550.715;  -10.454;42069.633
595.101;33935.371;  -10.322;42976.031
595.683;32998.844;  -10.042;44084.441
596.264;31905.893;  -14.334;43478.797
596.846;32138.920;  -10.863;43803.672
597.427;32568.902;   -9.901;42986.934
598.009;31883.555;  -10.911;42832.219
598.591;30135.152;  -10.483;42580.086
599.172;27791.576;   -9.663;43061.805
599.753;27253.574;  -10.631;41691.469
600.335;28840.787;   -9.371;40692.520
600.916;32264.459;  -13.992;39982.422
601.498;34329.051;   -8.352;40318.617
602.079;32981.926;   -8.411;40670.609
602.660;35502.195;  -10.841;41450.898
603.241;35842.254;  -12.963;41137.738
603.823;32962.730;  -11.523;38868.797
604.404;30815.238;  -11.881;38182.785
604.985;32132.475;  -11.721;38078.047
605.566;33128.148;   -9.293;38056.633
606.147;32019.582;  -10.940;37020.418
606.728;31105.338;  -11.840;37883.359
607.309;30402.051;  -11.781;38748.273
607.890;30404.949;  -11.262;38850.230
608.471;29224.453;  -10.111;37457.918
609.051;29220.789;   -7.709;36066.457
609.632;29695.223;  -12.409;35991.074
610.213;28493.096;  -10.811;37402.641
610.794;28515.910;  -11.630;38383.363
611.374;29847.451;   -8.030;40562.387
611.955;31121.482;  -10.809;38533.727
612.536;32619.410;  -10.531;36951.789
613.116;32840.781;  -12.820;37197.891
613.697;32309.814;  -11.419;38411.125
614.277;31388.877;   -9.768;38673.938
614.858;30349.555;  -10.251;37075.863
615.438;26935.740;  -11.981;35092.906
616.019;26286.570;   -8.978;33666.301
616.599;29176.480;  -12.219;34189.023
617.179;31632.725;  -14.170;36952.047
617.760;33361.645;   -9.211;39582.574
618.340;33593.051;   -9.018;38943.977
618.920;31663.066;   -9.249;37594.156
619.500;32013.623;  -12.728;37866.938
620.080;34234.773;  -12.939;37869.043
620.660;32877.629;  -11.586;36868.617
621.241;31806.707;  -11.538;36352.309
621.821;31983.287;  -11.398;35459.520
622.401;33052.668;  -10.179;35207.414
622.980;32597.340;  -11.587;35980.422
623.560;31315.127;  -12.888;37351.328
624.140;29036.766;  -13.149;34388.582
624.720;24515.197;   -9.928;32368.764
625.300;24495.107;  -10.869;32638.629
625.880;28597.564;   -8.617;34599.035
626.459;32649.756;  -12.138;36831.738
627.039;33672.750;  -12.267;38299.098
627.619;33728.098;   -7.476;38289.574
628.198;34443.988;  -11.347;37220.695
628.778;33476.445;  -11.678;37632.563
629.357;31203.045;  -12.438;38003.012
629.937;29516.641;   -9.576;38402.039
630.516;28525.883;  -11.096;37868.801
631.096;28563.482;  -11.828;35760.410
631.675;29491.379;  -11.565;35225.219
632.254;30141.666;  -11.845;35130.289
632.834;31073.484;  -11.545;35794.570
633.413;32113.035;  -10.887;35788.922
633.992;33641.234;  -10.175;34532.863
634.571;32667.545;   -9.704;33590.113
635.151;30320.762;  -10.815;34943.863
635.730;30202.717;  -11.617;35352.523
636.309;30147.127;  -10.836;35366.605
636.888;30983.232;   -9.755;36165.637
637.467;31595.553;  -11.684;37515.902
638.046;33684.375;  -11.987;39288.695
638.625;34400.098;  -10.455;38279.699
639.204;33003.609;  -11.234;37741.598
639.782;29820.258;  -12.023;38364.551
640.361;28495.449;  -11.506;36740.621
640.940;28463.113;  -12.316;34950.082
641.519;29926.121;  -11.616;34137.398
642.097;33161.301;   -9.266;35654.258
642.676;33463.391;  -12.936;35637.957
643.255;32864.074;   -9.966;36567.074
643.833;33086.363;   -8.916;37809.434
644.412;34549.652;  -10.936;37337.293
644.990;36314.105;  -12.176;37018.531
645.569;36016.516;  -12.246;36518.469
646.147;35140.117;  -12.107;36186.430
646.726;34910.051;  -12.937;36267.688
647.304;38110.145;  -12.547;36647.625
647.882;38432.699;  -12.597;39286.742
648.461;36097.430;   -9.427;39157.703
649.039;33756.977;   -8.937;35412.883
649.617;32470.559;  -11.067;34744.918
650.195;32347.070;  -10.657;35403.098
650.773;31358.859;  -10.097;35053.797
651.352;29132.924;  -11.887;33756.816
651.930;25043.270;  -13.557;31868.773
652.508;22449.486;  -11.767;33121.551
653.086;23288.893;  -10.777;33564.793
653.663;27193.920;  -12.067;34054.668
654.241;30211.582;  -14.918;35693.309
654.819;30956.402;  -11.788;36422.906
655.397;30389.047;  -11.268;38213.484
655.975;31372.256;  -11.738;39507.625
656.553;31170.072;  -11.018;39498.223
657.130;30127.557;  -12.848;40395.480
657.708;29576.188;  -10.098;39242.020
658.286;30138.943;  -11.678;38920.020
658.863;31402.668;  -11.498;40202.898
659.441;32572.652;  -11.008;39677.938
660.018;33413.418;  -11.048;40413.355
660.596;33196.934;  -12.058;39931.414
661.173;33089.008;  -14.158;39604.531
661.750;32741.021;  -12.298;39700.070
662.328;32162.426;  -10.699;39292.809
662.905;30668.324;  -12.119;38235.648
663.482;26799.936;  -11.829;36212.305
664.060;25782.139;  -11.009;35944.945
664.637;28392.484;  -10.369;35170.785
665.214;28995.209;  -10.459;34197.523
665.791;27669.875;  -12.599;34549.520
666.368;27235.004;  -12.919;35118.578
666.945;29170.926;  -10.699;36019.418
667.522;29992.756;  -11.359;36048.438
668.099;30162.439;  -13.529;36243.914
668.676;30507.775;  -10.229;35958.875
669.253;30368.822;   -9.279;37384.730
669.830;30094.926;  -11.370;36779.629
670.407;31492.699;  -10.950;35231.289
670.984;32407.813;  -12.850;35544.270
671.560;32096.469;   -8.440;35466.867
672.137;30303.943;  -13.520;34280.863
672.714;28727.701;  -13.620;34632.863
673.290;28664.199;  -10.450;35135.422
673.867;27810.883;  -10.960;36114.480
674.443;26529.688;  -13.300;36152.859
675.020;27100.877;  -12.370;35327.238
675.596;27266.264;  -11.250;35795.176
676.173;27816.508;  -11.080;35430.355
676.749;28388.135;  -13.220;33549.516
677.326;31485.652;  -13.000;32210.012
677.902;32461.002;  -12.701;32068.871
678.478;31787.934;  -12.801;32583.891
679.054;31051.811;   -8.601;32088.928
679.631;32516.822;  -12.631;30978.848
680.207;32507.117;   -9.451;33160.887
680.783;30830.572;  -11.701;35570.363
681.359;30635.445;  -12.701;36125.184
681.935;29931.254;  -13.271;35240.922
682.511;28785.057;  -10.791;34429.961
683.087;29504.754;  -10.791;34463.680
683.663;29821.998;   -8.121;34648.898
684.239;31459.580;  -13.261;34546.457
684.815;30199.137;  -10.581;35586.375
685.390;27542.592;   -9.961;35821.895
685.966;26648.438;  -11.182;35085.871
686.542;26418.748;  -13.512;34198.230
687.118;27078.775;  -11.472;32847.707
687.693;27208.762;  -10.152;32794.027
688.269;28752.949;  -14.442;33072.367
688.844;30094.883;  -11.852;33141.664
689.420;28103.289;  -13.942;33965.742
689.995;26585.930;   -9.702;34655.523
690.571;26661.875;  -11.312;33576.742
691.146;26336.221;  -14.332;32657.219
691.722;28184.490;  -11.192;32526.979
692.297;30056.195;  -10.962;33014.617
692.872;28879.268;  -11.082;34012.254
693.448;28185.680;  -14.732;34237.434
694.023;27751.135;  -12.363;34142.672
694.598;27938.191;  -12.393;34132.031
695.173;27302.164;  -11.023;34205.250
695.748;27221.332;  -12.743;32882.488
696.323;28645.992;  -11.103;32864.906
696.898;29716.484;   -8.123;33170.004
697.473;29381.014;  -12.603;32432.984
698.048;28376.012;  -12.553;31649.303
698.623;29455.189;  -12.573;30778.141
699.198;31914.641;  -12.743;31140.119
699.773;29620.555;  -12.843;31764.299
700.348;28823.582;  -16.683;31780.816
700.922;29562.414;  -11.403;32046.375
701.497;30369.104;  -11.253;32603.574
702.072;30384.633;  -10.044;34799.871
702.646;28967.738;  -13.054;35793.172
703.221;27488.625;  -11.414;35201.590
703.795;28140.229;  -10.644;34764.527
704.370;29574.848;  -13.484;34307.367
704.944;29276.291;  -12.144;33509.887
705.519;28339.000;  -12.024;31388.584
706.093;27220.914;  -11.234;31340.104
706.668;25751.861;   -9.874;32630.281
707.242;25433.107;  -12.404;32728.779
707.816;25192.695;  -10.644;32947.238
708.390;25012.914;  -11.174;33277.855
708.965;25845.002;  -10.324;33834.336
709.539;25338.061;  -12.014;33709.273
710.113;25208.602;  -12.295;33044.313
710.687;25916.197;  -10.965;31953.992
711.261;26248.014;  -13.685;30505.949
711.835;25443.279;  -15.335;30262.369
712.409;24880.369;  -13.785;31254.447
712.983;26084.270;  -10.525;32754.986
713.557;27565.121;  -13.175;34018.824
714.131;28425.207;  -13.245;34579.625
714.704;29664.801;  -13.175;33890.262
715.278;31040.775;  -11.545;33531.102
715.852;30117.436;  -10.975;33601.660
716.425;29589.830;  -10.075;33515.117
716.999;29490.607;  -12.185;33185.555
717.573;30143.287;   -9.685;33905.996
718.146;31562.191;  -10.516;35199.293
718.720;28249.447;  -12.106;35060.551
719.293;27769.527;  -12.386;34973.230
719.867;30256.090;  -12.456;36394.449
720.440;29866.723;  -10.686;36663.008
721.013;29858.584;  -12.596;35102.426
721.587;30261.926;  -13.956;33985.266
722.160;29761.762;   -9.806;33524.965
722.733;30041.486;  -11.676;32987.043
723.306;29755.049;  -14.276;33066.301
723.880;29591.201;  -12.126;33399.500
724.453;30355.732;  -10.156;33468.297
725.026;29115.760;  -12.956;33816.637
725.599;27368.717;  -11.676;32797.996
726.172;26560.840;  -12.337;33187.434
726.745;27629.609;  -11.277;35136.613
727.318;26907.893;  -11.927;35751.730
727.891;25740.543;  -13.607;35890.430
728.463;25835.715;  -11.327;34822.090
729.036;25483.830;  -11.917;32895.086
729.609;26316.381;  -12.697;31823.225
730.182;27299.398;  -11.787;31445.283
730.754;28022.148;  -12.957;32373.223
731.327;28574.914;  -11.017;33676.820
731.900;27220.893;  -12.797;33417.000
732.472;25262.801;  -10.677;31978.498
733.045;24658.676;  -12.797;30368.777
733.617;25219.947;  -13.908;30574.215
734.190;25197.861;  -12.258;31280.975
734.762;26225.926;  -13.438;31674.412
735.334;26388.535;  -11.758;31247.291
735.907;26287.469;  -11.158;29876.211
736.479;27152.885;  -11.258;29808.488
737.051;28844.152;  -10.918;30233.547
737.623;30046.516;  -11.038;31469.086
738.195;29693.010;  -12.188;31784.225
738.768;26914.953;  -11.378;32120.523
739.340;26143.637;  -12.598;32094.342
739.912;27120.832;  -11.568;31312.680
740.484;27019.939;   -9.348;31946.238
741.056;26412.230;  -12.628;32984.059
741.628;26740.557;  -13.349;33897.715
742.199;27056.875;  -11.309;33213.016
742.771;27235.191;  -12.699;31369.113
743.343;28879.990;  -11.919;31865.473
743.915;29095.314;  -11.679;32388.631
744.487;27616.186;  -12.249;31079.568
745.058;26033.461;  -11.119;30570.107
745.630;24824.016;   -9.439;29970.127
746.201;24585.922;  -11.949;29186.766
746.773;24234.500;  -12.639;28805.723
747.344;23530.049;  -11.039;29591.223
747.916;22533.369;  -12.549;31412.201
748.487;21687.654;  -12.659;32194.898
749.059;21678.881;  -13.059;32533.719
749.630;22782.283;  -12.080;32158.518
750.201;22099.967;  -13.100;30855.395
750.773;20799.150;  -15.310;28622.555
751.344;20627.273;  -12.240;28405.732
751.915;20735.561;  -11.960;28461.551
752.486;20787.977;  -13.200;27842.850
753.057;20557.385;  -15.230;27845.008
753.628;20204.359;  -13.130;27728.107
754.199;20317.652;  -12.720;27381.086
754.770;20324.113;  -10.680;25882.203
755.341;20458.549;  -11.010;25886.184
755.912;19824.979;  -12.990;26050.861
756.483;18733.832;  -11.110;26798.779
757.054;18173.748;  -12.190;27048.238
757.625;18255.832;  -13.981;26294.838
758.195;18522.656;  -11.041;26142.076
758.766;19813.320;  -11.861;26392.234
759.337;20601.398;  -11.461;26334.594
759.907;20872.041;  -15.001;27579.652
760.478;20575.055;   -9.681;28352.770
761.048;19981.234;  -12.421;27325.088
761.619;19232.098;  -11.761;26460.428
762.189;17951.725;  -12.391;26029.826
762.760;17763.256;  -10.201;26430.145
763.330;18852.555;  -10.811;26670.902
763.900;21129.623;  -10.261;26603.021
764.471;20583.951;  -13.061;25542.740
765.041;19142.504;  -11.051;24358.459
765.611;19071.787;  -11.032;23991.297
766.181;18910.221;  -10.532;24470.236
766.751;18611.283;  -13.502;24845.975
767.321;18708.324;  -11.392;24533.633
767.891;19101.396;  -11.522;24916.492
768.461;19802.004;  -13.672;24776.771
769.031;19418.959;  -14.652;24757.988
769.601;18378.695;  -10.182;24181.088
770.171;16597.889;  -11.752;23670.387
770.741;15425.153;  -12.272;22960.045
771.311;15553.081;  -13.112;22917.523
771.880;15680.028;  -14.122;23562.941
772.450;16794.906;  -11.782;24216.500
773.020;18281.164;  -12.642;24140.398
773.589;17431.258;  -13.043;24414.857
774.159;15444.413;  -11.783;23858.717
774.729;14745.941;  -13.473;22942.135
775.298;16035.296;  -14.523;22324.033
775.867;17000.018;  -12.013;21140.313
776.437;16104.791;  -12.113;20838.092
777.006;14560.694;  -13.543;20599.510
777.576;12997.953;  -12.523;20508.809
778.145;12849.613;  -12.173;20732.947
778.714;14049.520;  -12.153;21062.465
779.283;14575.879;  -11.833;20949.664
779.853;15140.664;  -13.483;20508.623
780.422;15746.718;  -12.933;20649.082
780.991;15104.892;  -13.173;21527.520
781.560;13514.958;  -10.224;22632.658
782.129;13165.553;  -12.684;23048.277
782.698;14473.864;  -11.284;23438.555
783.267;15473.479;  -11.684;23267.734
783.836;14435.468;  -10.974;22415.133
784.404;13169.306;  -13.534;20443.152
784.973;13139.836;  -16.734;19699.150
785.542;13143.987;  -12.594;19763.828
786.111;12832.245;  -11.644;20341.408
786.679;13386.485;  -11.384;20207.967
787.248;14190.877;  -12.014;19516.465
787.817;13256.864;  -12.804;18900.363
788.385;12148.047;  -11.994;17879.121
788.954;12201.283;  -12.564;17658.301
789.522;13403.262;  -12.225;17788.879
790.090;13528.437;  -13.775;18118.277
790.659;12529.579;  -12.485;18338.736
791.227;12013.326;  -12.295;18508.615
791.795;12003.393;  -13.415;17898.254
792.364;11416.048;  -12.995;17295.133
792.932;10993.812;   -8.365;16822.051
793.500;11207.795;  -11.925;17040.148
794.068;11481.567;  -13.245;17179.787
794.636;11504.638;  -13.815;16664.246
795.204;10960.003;  -13.375;16524.545
795.772;10952.473;  -12.125;17274.564
796.340;11323.709;  -13.855;17891.002
796.908;11528.521;  -13.456;17648.561
797.476;10986.488;  -13.116;17064.080
798.044;10612.281;  -13.226;16672.777
798.612;11371.014;  -11.236;17023.996
799.180;12324.678;  -10.476;16561.615
799.747;12425.654;  -11.746;15962.773
800.315;11495.468;  -12.366;15296.992
800.883;10575.402;  -14.616;14801.771
801.450;10284.135;  -11.996;14534.430
802.018;10865.449;  -11.206;14173.248
802.585;10277.851;  -12.466;14029.547
803.153; 9226.048;  -12.846;13836.846
803.720; 8917.095;  -12.136;13567.324
804.287; 8942.458;  -10.966;13360.622
804.855; 9303.370;   -9.797;13681.981
805.422; 9181.239;  -13.037;13536.560
805.989; 8865.694;  -12.697;13355.958
806.556; 9084.333;  -11.737;13747.896
807.124; 9442.444;  -11.997;13987.376
807.691; 8988.544;  -13.997;14038.674
808.258; 8819.126;  -10.927;14120.152
808.825; 9354.254;  -13.727;13860.111
809.392; 9803.619;  -11.847;13268.790
809.959; 9086.119;  -14.217;12680.389
810.526; 8199.276;   -8.277;12427.308
811.093; 8092.173;   -9.647;12030.105
811.659; 7996.779;  -10.987;11653.664
812.226; 7511.131;  -13.447;11637.183
812.793; 7591.002;  -14.418;11611.521
813.360; 8038.496;  -13.908;11885.181
813.926; 8133.520;  -12.918;12770.539
814.493; 8052.849;  -14.888;12677.638
815.060; 8133.730;  -12.758;11974.336
815.626; 8405.429;  -13.478;11594.715
816.193; 8412.710;  -13.898;11579.474
816.759; 8149.981;  -13.588;11666.972
817.325; 8071.329;  -12.018;11325.530
817.892; 7605.943;  -14.068;11105.369
818.458; 6891.292;  -13.458;10843.928
819.024; 6588.114;  -11.968;10714.406
819.591; 6256.868;  -11.028;10469.165
820.157; 5997.873;  -12.088;10235.523
820.723; 5857.471;  -12.599;10847.563
821.289; 6114.332;  -10.419;11040.980
821.855; 6866.580;  -10.939;10357.100
822.421; 7447.814;  -12.539; 9978.918
822.987; 7314.488;  -13.259; 9754.177
823.553; 6654.176;  -15.369;10065.755
824.119; 6368.215;  -10.779;10036.294
824.685; 5915.042;   -9.999;10029.192
825.251; 5530.135;  -11.819;10199.230
825.816; 5306.867;  -13.369; 9820.189
826.382; 5453.727;  -12.679; 9297.248
826.948; 5674.214;  -11.199; 9381.347
827.513; 5519.447;  -11.179; 9450.726
828.079; 5459.256;  -13.489; 9472.444
828.645; 5734.715;  -12.500; 9292.643
829.210; 5982.038;  -15.120; 9065.341
829.776; 5862.340;  -12.590; 9132.620
830.341; 5690.749;  -11.540; 9092.878
830.906; 5717.277;  -12.400; 9078.557
831.472; 5606.753;  -12.720; 8534.535
832.037; 5131.500;  -11.490; 8677.874
832.602; 4642.808;  -14.380; 8628.692
833.167; 4811.005;  -12.780; 8879.031
833.733; 5079.922;  -11.100; 9189.790
834.298; 5326.265;  -12.080; 9052.608
834.863; 5270.600;  -13.910; 8895.087
835.428; 4967.069;  -13.470; 8824.266
835.993; 5233.367;  -11.760; 8845.385
836.558; 5678.915;  -12.731; 8888.563
837.123; 5779.898;  -12.431; 8966.582
837.688; 5532.026;  -11.241; 8617.860
838.253; 5189.930;  -13.681; 8590.699
838.817; 4934.439;  -12.531; 8443.797
839.382; 5108.514;  -12.671; 8799.356
839.947; 5075.091;  -11.541; 8810.595
840.511; 4878.908;  -12.021; 8796.394
841.076; 4833.890;  -13.071; 8347.231
841.641; 4705.195;  -11.411; 8224.330
842.205; 4555.373;  -13.671; 8223.349
842.770; 4574.603;  -11.291; 8622.107
843.334; 4674.604;  -12.951; 8410.386
843.898; 4718.375;  -11.221; 8337.465
844.463; 4664.116;  -11.322; 8506.283
845.027; 4426.081;  -11.412; 8280.962
845.591; 4160.285;  -11.512; 8231.141
846.156; 4294.995;  -14.042; 7969.179
846.720; 4529.551;  -12.152; 7768.278
847.284; 4537.072;  -10.922; 7630.957
847.848; 4257.908;  -10.962; 7472.395
848.412; 3923.248;  -14.612; 7437.394
848.976; 3929.405;  -11.492; 7674.592
849.540; 3990.866;   -9.172; 7836.011
850.104; 4360.428;  -11.232; 7913.669
850.668; 4704.518;  -15.182; 7694.508
851.232; 4386.277;  -15.332; 7756.887
851.796; 4143.964;  -13.703; 7926.545
852.359; 4224.156;  -11.113; 7827.844
852.923; 4127.758;  -11.843; 7641.163
853.487; 3953.013;  -11.173; 7342.501
854.050; 3749.220;  -13.443; 7042.820
854.614; 3625.327;  -13.823; 7151.338
855.177; 3709.847;  -16.393; 7105.077
855.741; 3825.103;  -11.693; 6989.675
856.304; 3824.448;  -10.843; 6596.634
856.868; 3720.945;  -13.783; 6356.272
857.431; 3486.194;  -11.953; 6468.571
857.995; 3327.373;  -13.683; 6373.210
858.558; 3286.348;  -11.433; 6324.448
859.121; 3247.005;  -12.493; 6408.327
859.684; 3290.747;  -12.384; 6347.886
860.247; 3305.205;  -14.774; 6321.264
860.810; 3140.970;  -13.154; 6301.903
861.374; 3005.034;  -11.264; 6607.881
861.937; 2947.000;  -15.424; 6408.200
862.500; 2968.537;  -12.854; 6572.639
863.062; 3017.632;  -12.344; 6387.297
863.625; 3020.499;  -13.314; 6190.836
864.188; 2867.668;  -14.724; 5807.254
864.751; 2792.918;  -13.464; 5682.413
865.314; 2781.724;  -11.684; 5547.492
865.876; 2835.902;  -11.104; 5500.150
866.439; 2952.976;  -12.344; 5415.909
867.002; 2954.443;  -13.494; 5501.567
867.564; 2947.135;  -10.935; 5413.946
868.127; 2842.388;  -12.665; 5160.325
868.689; 2698.924;  -14.515; 5133.183
869.252; 2719.312;  -13.425; 5252.382
869.814; 2765.465;  -11.595; 5297.141
870.377; 2771.978;  -12.175; 5390.919
870.939; 2653.846;  -10.265; 5599.898
871.501; 2561.885;  -12.375; 5248.336
872.063; 2523.604;  -14.355; 4854.235
872.626; 2547.526;  -14.435; 4817.074
873.188; 2456.626;  -12.415; 4987.732
873.750; 2391.345;  -14.555; 4868.651
874.312; 2419.477;  -11.185; 4779.330
874.874; 2392.345;  -12.715; 4866.348
875.436; 2272.938;  -13.196; 4718.887
875.998; 2163.244;  -11.426; 4660.005
876.560; 2085.559;   -9.786; 4462.964
877.122; 2055.008;  -12.796; 4145.042
877.683; 1978.802;  -13.226; 4056.481
878.245; 1841.651;  -12.036; 3950.740
878.807; 1724.251;  -11.536; 4058.958
879.369; 1733.987;  -10.806; 3954.677
879.930; 1868.633;  -13.946; 3941.495
880.492; 1954.384;  -11.876; 4067.014
881.053; 1830.360;  -13.216; 3859.633
881.615; 1705.885;  -12.226; 3776.071
882.176; 1643.983;  -12.946; 3734.750
882.738; 1629.144;  -10.736; 3678.489
883.299; 1579.829;  -12.057; 3405.407
883.860; 1475.769;  -12.677; 3351.106
884.422; 1419.489;  -14.097; 3394.044
884.983; 1366.124;  -13.667; 3166.443
885.544; 1303.923;  -10.717; 3189.802
886.105; 1243.840;  -14.357; 3160.360
886.666; 1178.629;  -14.287; 3093.059
887.227; 1104.801;  -14.297; 2941.957
887.788; 1049.641;  -13.137; 2974.836
888.349;  980.804;  -14.637; 2721.214
888.910;  918.465;  -12.247; 2696.493
889.471;  922.219;  -10.577; 2560.172
890.032;  929.780;  -12.937; 2558.190
890.593;  923.026;  -12.487; 2567.669
891.153;  898.740;  -11.898; 2460.307
891.714;  866.261;  -14.278; 2372.046
892.275;  839.354;  -13.308; 2309.505
892.835;  778.890;  -12.058; 2382.543
893.396;  692.168;  -15.268; 2295.502
893.956;  645.465;  -13.278; 2162.420
894.517;  624.281;  -11.968; 2125.439
895.077;  627.124;  -12.798; 2086.978
895.638;  603.729;  -11.908; 2126.316
896.198;  577.861;  -13.288; 1838.275
896.758;  551.127;  -12.198; 1892.813
897.319;  522.309;  -13.048; 1792.232
897.879;  485.707;  -13.718; 1762.751
898.439;  444.728;  -14.138; 1661.149
898.999;  411.366;  -13.659; 1781.468
899.559;  396.442;  -14.699; 1703.347
900.119;  378.461;  -14.339; 1537.525
900.679;  355.460;  -11.789; 1638.384
901.239;  326.395;  -13.629; 1527.902
901.799;  304.858;  -13.679; 1456.441
902.359;  294.094;  -13.679; 1357.140
902.919;  284.982;  -14.159; 1331.118
903.479;  271.610;  -13.419; 1317.257
904.038;  255.694;  -14.899; 1262.595
904.598;  239.794;  -14.339; 1152.034
905.158;  230.798;  -13.959; 1240.893
905.717;  225.676;  -12.749; 1233.691
906.277;  220.534;  -11.889; 1217.330
906.836;  213.933;  -12.870; 1222.408
907.396;  209.026;  -11.790; 1193.047
907.955;  200.292;  -13.750; 1182.526
908.515;  190.437;  -14.760; 1099.364
909.074;  186.478;  -12.540; 1092.863
909.633;  181.683;  -12.120; 1069.121
910.192;  176.342;  -12.550; 1196.460
910.752;  170.044;  -12.760; 1029.960
911.311;  166.135;  -14.750; 1009.780
911.870;  163.868;  -13.860;  971.460
912.429;  164.367;  -13.480; 1094.080
912.988;  164.182;  -12.370; 1081.060
913.547;  159.843;  -14.670;  940.380
914.106;  159.527;  -12.800;  999.420
914.665;  158.115;  -11.370;  984.020
915.224;  154.505;  -11.430; 1035.760
915.782;  151.557;  -12.260;  922.560
916.341;  151.258;  -12.540; 1049.840
916.900;  148.157;  -12.540;  925.260
917.458;  145.896;  -13.480;  884.220
918.017;  145.696;  -12.470;  942.600
918.576;  145.486;  -13.450;  904.440
919.134;  143.537;  -12.890;  837.980
919.693;  142.545;  -15.480;  893.060
920.251;  141.368;  -14.420;  876.500
920.809;  141.525;  -12.170;  839.580
921.368;  138.962;  -13.650;  885.360
921.926;  138.070;  -12.750;  842.940
922.484;  136.807;  -14.150;  903.360
923.042;  137.270;  -15.100;  880.340
923.601;  139.645;  -10.990;  998.680
924.159;  139.027;  -12.470;  935.560
924.717;  139.056;  -15.640;  841.080
925.275;  140.270;  -12.380;  903.240
925.833;  140.768;  -12.710;  779.320
926.391;  142.913;  -11.200;  938.380
926.949;  142.996;  -16.000;  857.680
927.506;  144.569;  -12.260;  903.500
928.064;  147.059;  -11.300;  877.580
928.622;  145.596;  -13.750;  880.100
929.180;  145.389;  -15.290;  814.180
929.737;  146.906;  -14.500;  808.540
930.295;  150.163;  -10.630;  928.480
930.853;  151.332;  -14.590;  849.100
931.410;  150.898;  -14.450;  821.120
931.968;  153.774;  -14.390;  940.660
932.525;  155.587;  -13.050;  909.380
933.082;  159.099;  -15.620;  811.440
933.640;  167.984;  -15.650;  925.900
934.197;  172.257;  -13.610;  886.360
934.754;  175.461;  -13.320;  897.780
935.312;  174.753;  -13.370;  863.340
935.869;  177.720;  -12.780; 1012.980
936.426;  178.869;  -14.480;  872.800
936.983;  182.949;  -13.180;  889.020
937.540;  183.154;  -15.710;  838.280
938.097;  182.650;  -14.980;  940.120
938.654;  181.918;  -13.060;  898.860
939.211;  180.957;  -12.760;  952.480
939.768;  181.750;  -16.230;  915.420
940.324;  186.985;  -10.940;  904.200
940.881;  191.975;  -12.570;  878.500
941.438;  196.105;  -13.650; 1021.200
941.995;  191.350;  -13.300;  992.560
942.551;  190.810;  -15.800;  875.620
943.108;  190.806;  -14.180;  937.920
943.664;  183.043;  -13.890;  869.340
944.221;  183.380;  -12.640; 1088.140
944.777;  182.098;  -14.700;  869.680
945.334;  186.248;  -13.010;  884.840
945.890;  186.881;  -13.480;  946.480
946.446;  184.761;  -14.920;  947.020
947.003;  185.895;  -13.860;  964.940
947.559;  187.748;  -12.000; 1063.040
948.115;  184.070;  -10.510; 1026.540
948.671;  181.879;  -12.760;  967.300
949.227;  179.133;  -15.390;  859.560
949.783;  176.089;  -15.570;  858.900
950.339;  177.218;  -12.800;  991.000
950.895;  176.658;  -13.780; 1023.840
951.451;  173.082;  -13.810;  925.280
952.007;  173.523;  -12.390;  998.540
952.563;  168.584;  -11.980;  937.780
953.118;  156.981;  -14.070;  904.940
953.674;  144.526;  -14.140;  935.780
954.230;  131.810;  -12.680;  949.640
954.785;  122.866;  -12.770;  936.640
955.341;  120.636;  -11.450;  998.160
955.897;  119.808;  -15.350;  834.660
956.452;  127.223;  -14.200;  953.840
957.008;  131.999;  -10.820; 1083.640
957.563;  130.412;  -13.200; 1009.540
958.118;  126.768;  -14.460;  877.700
958.674;  127.978;  -13.840;  946.780
959.229;  131.578;  -10.670; 1013.980
959.784;  133.846;  -17.040;  832.400
960.339;  136.722;  -12.970; 1001.280
960.894;  136.293;  -12.700;  963.760
961.449;  137.570;  -13.790;  859.960
962.004;  142.272;  -11.760; 1212.840
962.559;  140.668;  -14.840;  860.140
963.114;  141.350;  -14.530;  742.480
963.669;  143.244;  -12.780;  915.500
964.224;  142.562;  -14.330;  874.340
964.779;  138.809;  -14.380;  828.420
965.334;  135.508;  -12.460; 1017.860
965.888;  131.702;  -13.490;  875.360
966.443;  131.901;  -14.140;  972.380
966.998;  128.358;  -16.240;  819.460
967.552;  126.893;  -12.730;  908.380
968.107;  123.845;  -14.510;  868.300
968.661;  124.312;  -11.850;  922.440
969.216;  122.112;  -14.370;  856.280
969.770;  122.255;  -13.010;  917.200
970.324;  120.570;  -12.460;  923.140
970.879;  119.992;  -11.580;  947.180
971.433;  120.287;  -13.130;  952.720
971.987;  118.335;  -12.360;  895.340
972.541;  118.165;  -14.330;  917.100
973.095;  117.436;  -13.310; 1009.460
973.649;  115.435;  -15.830;  809.480
974.203;  118.361;  -15.830;  829.040
974.757;  121.834;  -13.480;  855.220
975.311;  120.751;  -13.720;  872.600
975.865;  117.259;  -15.780;  881.820
976.419;  114.507;  -14.290;  857.400
976.973;  113.732;  -13.210;  849.620
977.526;  111.709;  -12.300;  949.920
978.080;  107.449;  -14.840;  796.780
978.634;  107.821;  -13.100;  921.320
979.187;  105.411;  -12.300;  905.400
979.741;  102.318;  -12.020; 1018.380
980.294;   96.059;  -14.590;  789.160
980.848;   93.061;  -14.390;  717.220
981.401;   93.944;  -14.280;  816.540
981.955;   94.059;  -11.920;  844.300
982.508;   90.619;  -15.790;  746.340
983.061;   91.147;  -12.070;  915.260
983.615;   88.529;  -13.260;  798.800
984.168;   85.878;  -15.540;  770.080
984.721;   86.368;  -13.230;  880.760
985.274;   84.802;  -11.820;  867.500
985.827;   83.111;  -13.510;  834.220
986.380;   79.903;  -14.840;  721.340
986.933;   78.969;  -13.970;  864.800
987.486;   78.645;  -12.450;  861.920
988.039;   77.357;  -11.170;  863.100
988.591;   74.272;  -13.070;  893.260
989.144;   70.244;  -15.530;  737.260
989.697;   69.405;  -14.300;  758.740
990.250;   69.389;  -13.310;  858.100
990.802;   67.382;  -14.490;  755.860
991.355;   68.763;  -12.980;  974.880
991.907;   67.030;  -13.715;  864.320
992.460;   65.297;  -14.450;  753.760
993.012;   65.001;  -12.590;  749.540
993.565;   62.797;  -15.180;  711.360
994.117;   64.901;  -11.630;  950.780
994.669;   61.595;  -13.760;  701.320
995.221;   60.308;  -12.710;  791.920
995.774;   59.469;  -14.620;  787.580
996.326;   58.284;  -13.150;  740.220
996.878;   59.606;  -12.880;  838.420
997.430;   57.124;  -14.580;  699.860
997.982;   55.600;  -14.030;  750.140
998.534;   56.278;  -12.190;  739.060
999.086;   54.074;  -12.990;  738.220
999.638;   52.401;  -13.180;  661.380
1000.190;   51.617;  -14.970;  699.320
1000.741;   52.996;  -12.200;  742.700
1001.293;   52.686;  -13.400;  686.020
1001.845;   51.637;  -14.490;  676.640
1002.396;   51.694;  -15.280;  743.400
1002.948;   51.071;  -12.380;  737.400
1003.500;   50.993;  -13.260;  723.780
1004.051;   51.540;  -13.730;  907.580
1004.603;   49.510;  -12.300;  791.820
1005.154;   46.357;  -15.330;  608.980
1005.705;   45.682;  -12.800;  723.960
1006.257;   44.741;  -13.900;  707.220
1006.808;   44.091;  -14.430;  685.460
1007.359;   43.352;  -12.010;  763.240
1007.910;   42.771;  -12.690;  646.640
1008.461;   41.766;  -13.610;  732.940
1009.013;   39.963;  -14.990;  588.340
1009.564;   41.620;  -11.860;  793.520
1010.115;   39.887;  -12.640;  597.040
1010.665;   39.283;  -14.570;  602.160
1011.216;   39.077;  -15.190;  667.920
1011.767;   38.438;  -13.470;  697.920
1012.318;   39.370;  -13.760;  736.980
1012.869;   38.265;  -15.950;  679.000
1013.419;   37.178;  -15.880;  603.120
1013.970;   37.991;  -14.540;  666.640
1014.521;   37.607;  -13.220;  620.620
1015.071;   37.404;  -15.020;  670.380
1015.622;   36.805;  -17.510;  635.460
1016.172;   36.241;  -14.130;  596.820
1016.723;   36.240;  -14.220;  614.380
1017.273;   35.345;  -15.370;  604.160
1017.823;   36.143;  -15.290;  650.340
1018.374;   35.068;  -13.420;  611.760
1018.924;   35.365;  -11.740;  716.880
1019.474;   35.589;  -12.250;  718.880
1020.024;   34.469;  -15.850;  657.580
1020.574;   34.630;  -13.280;  726.160
1021.124;   34.998;  -13.560;  673.580
1021.674;   32.566;  -13.790;  559.120
1022.224;   33.794;  -14.610;  708.940
1022.774;   33.187;  -13.100;  668.820
1023.324;   34.668;  -11.470;  753.520
1023.874;   35.396;  -11.990;  875.760
1024.423;   32.940;  -14.550;  613.700
1024.973;   32.457;  -14.440;  610.760
1025.523;   32.317;  -13.250;  620.960
1026.072;   31.502;  -15.200;  606.420
1026.622;   31.263;  -14.590;  675.740
1027.172;   32.639;  -11.080;  715.660
1027.721;   31.109;  -14.010;  601.220
1028.270;   31.175;  -13.690;  663.400
1028.820;   30.245;  -15.380;  638.080
1029.369;   30.265;  -14.980;  612.700
1029.918;   31.333;  -13.100;  649.840
1030.468;   29.799;  -13.680;  564.780
1031.017;   30.773;  -13.770;  634.800
1031.566;   29.043;  -14.100;  608.900
1032.115;   30.826;  -11.770;  694.500
1032.664;   28.896;  -14.940;  596.480
1033.213;   29.914;  -13.370;  735.420
1033.762;   28.804;  -13.660;  635.620
1034.311;   29.599;  -13.650;  677.220
1034.860;   29.472;  -13.820;  691.000
1035.408;   29.235;  -12.860;  722.720
1035.957;   29.957;  -13.060;  719.540
1036.506;   26.966;  -14.510;  530.800
1037.055;   30.808;  -13.470;  844.320
1037.603;   27.686;  -14.800;  664.000
1038.152;   26.161;  -14.190;  534.760
1038.700;   27.681;  -11.810;  585.740
1039.249;   27.181;  -12.850;  681.220
1039.797;   27.058;  -14.610;  633.360
1040.345;   26.209;  -15.220;  705.420
1040.894;   26.525;  -13.480;  625.300
1041.442;   25.679;  -13.310;  632.200
1041.990;   25.855;  -14.510;  559.160
1042.538;   24.275;  -15.700;  536.180
1043.087;   25.551;  -13.910;  570.860
1043.635;   26.563;  -13.620;  670.500
1044.183;   25.062;  -14.230;  586.400
1044.731;   25.556;  -13.730;  576.000
1045.279;   25.606;  -13.970;  674.920
1045.827;   27.029;  -10.750;  892.400
1046.374;   23.666;  -15.230;  515.420
1046.922;   23.583;  -15.390;  590.580
1047.470;   25.860;  -12.320;  691.300
1048.018;   24.611;  -13.230;  647.960
1048.565;   25.721;  -13.390;  708.600
1049.113;   23.516;  -15.030;  557.000
1049.660;   23.974;  -12.540;  629.660
1050.208;   24.050;  -15.040;  675.640
1050.755;   22.496;  -14.680;  606.580
1051.303;   23.834;  -13.610;  686.820
1051.850;   23.312;  -14.340;  635.120
1052.397;   20.847;  -16.330;  473.960
1052.945;   21.525;  -15.710;  617.760
1053.492;   23.874;  -12.320;  741.840
1054.039;   23.531;  -13.730;  720.180
1054.586;   22.219;  -16.140;  557.240
1055.133;   22.173;  -14.020;  693.140
1055.680;   22.613;  -13.430;  646.620
1056.227;   21.814;  -14.570;  542.780
1056.774;   23.806;  -14.400;  794.980
1057.321;   20.936;  -14.230;  523.260
1057.868;   21.386;  -14.220;  651.320
1058.415;   20.891;  -14.060;  651.980
1058.961;   21.368;  -14.640;  678.940
1059.508;   21.324;  -13.970;  643.820
1060.055;   20.660;  -15.100;  581.780
1060.601;   22.107;  -12.180;  624.300
1061.148;   20.299;  -15.010;  616.820
1061.694;   19.750;  -14.750;  592.580
1062.241;   19.868;  -14.130;  596.320
1062.787;   21.087;  -14.770;  663.140
1063.334;   22.293;  -13.130;  808.560
1063.880;   20.347;  -14.420;  668.360
1064.426;   20.024;  -13.130;  706.820
1064.972;   19.550;  -13.960;  601.340
1065.518;   17.829;  -13.680;  566.640
1066.065;   19.035;  -15.720;  624.460
1066.611;   18.753;  -13.970;  598.800
1067.157;   18.856;  -13.920;  641.860
1067.703;   19.583;  -14.760;  668.480
1068.249;   18.600;  -14.490;  605.220
1068.794;   19.006;  -14.740;  626.880
1069.340;   18.134;  -13.220;  578.960
1069.886;   18.261;  -14.930;  590.700
1070.432;   17.816;  -14.700;  541.720
1070.977;   17.107;  -14.470;  601.080
1071.523;   17.785;  -14.330;  573.060
1072.068;   17.014;  -14.960;  582.000
1072.614;   17.030;  -16.220;  527.760
1073.160;   17.856;  -11.280;  687.040
1073.705;   15.993;  -15.990;  572.520
1074.250;   16.176;  -16.550;  559.900
1074.796;   17.007;  -14.600;  655.160
1075.341;   17.216;  -13.440;  664.100
1075.886;   16.918;  -14.450;  594.240
1076.431;   16.334;  -13.160;  649.880
1076.976;   16.374;  -14.710;  639.220
1077.521;   15.539;  -14.000;  583.080
1078.067;   15.694;  -14.470;  579.400
1078.612;   15.712;  -14.530;  661.620
1079.156;   15.494;  -15.660;  601.540
1079.701;   16.675;  -16.120;  693.260
1080.246;   17.178;  -12.960;  696.300
1080.791;   16.985;  -13.700;  625.020
1081.336;   15.524;  -15.540;  659.320
1081.880;   16.026;  -14.640;  649.680
1082.425;   14.795;  -14.220;  573.480
1082.970;   16.888;  -11.890;  717.040
1083.514;   14.855;  -13.820;  597.000
1084.059;   14.115;  -14.280;  586.720
1084.603;   13.808;  -12.890;  565.840
1085.147;   14.624;  -13.590;  645.220
1085.692;   15.984;  -14.050;  716.800
1086.236;   12.441;  -14.990;  503.140
1086.780;   16.300;  -12.640;  751.440
1087.325;   14.306;  -15.550;  654.620
1087.869;   14.237;  -14.980;  610.700
1088.413;   14.914;  -13.440;  705.040
1088.957;   12.843;  -12.170;  543.400
1089.501;   14.524;  -12.730;  766.640
1090.045;   14.361;  -14.650;  726.480
1090.589;   11.903;  -14.500;  569.920
1091.133;   13.272;  -12.320;  673.340
1091.676;   13.458;  -16.130;  591.940
1092.220;   12.453;  -13.930;  600.920
1092.764;   15.050;  -12.820;  706.960
1093.307;   13.720;  -11.700;  673.780
1093.851;   12.559;  -15.600;  556.540
1094.395;   12.741;  -13.920;  683.140
1094.938;   12.371;  -16.090;  632.520
1095.482;   12.456;  -13.820;  559.800
1096.025;   13.071;  -12.720;  710.880
1096.568;   13.103;  -12.100;  779.280
1097.112;   10.296;  -15.450;  508.180
1097.655;   12.366;  -14.310;  603.000
1098.198;   10.492;  -14.740;  600.180
1098.741;   10.909;  -15.550;  612.860
1099.285;   12.415;  -12.600;  657.300
1099.828;   10.099;  -15.050;  439.400
1100.371;   11.661;  -14.800;  608.160
1100.914;   11.920;  -16.480;  682.660
1101.457;   11.958;  -12.990;  679.900
1101.999;   10.084;  -14.110;  584.680
1102.542;   11.289;  -11.450;  641.440
1103.085;   10.771;  -13.350;  658.500
1103.628;   11.860;  -13.200;  762.060
1104.170;   10.287;  -12.310;  588.280
1104.713;   10.563;  -14.320;  646.700
1105.256;    9.375;  -16.110;  557.440
1105.798;    8.455;  -15.910;  499.980
1106.341;   11.570;  -12.200;  728.900
1106.883;    9.436;  -14.910;  521.340
1107.425;   10.082;  -14.960;  668.180
1107.968;    9.771;  -13.440;  612.380
1108.510;   11.099;  -14.010;  684.960
1109.052;    8.811;  -15.430;  612.620
1109.594;    7.978;  -15.290;  554.440
1110.136;    9.648;  -13.360;  643.220
1110.679;    9.174;  -13.820;  633.080
1111.221;    9.292;  -13.690;  604.460
1111.763;    8.696;  -14.890;  559.220
1112.304;    8.005;  -14.550;  547.140
1112.846;    9.720;  -12.760;  666.240
1113.388;   12.532;  -10.780;  942.180
1113.930;    9.184;  -12.690;  694.200
1114.472;    7.980;  -15.730;  606.540
1115.013;    7.330;  -14.620;  551.280
1115.555;    7.559;  -14.950;  587.100
1116.097;    7.363;  -16.460;  579.480
1116.638;    8.083;  -13.730;  684.600
1117.180;    9.022;  -13.810;  667.740
1117.721;    7.605;  -13.280;  568.580
1118.262;    8.500;  -15.080;  677.960
1118.804;    8.442;  -14.040;  637.340
1119.345;    7.400;  -15.430;  578.400
1119.886;    8.646;  -15.240;  704.040
1120.427;    7.058;  -15.820;  589.020
1120.969;    7.308;  -14.550;  597.920
1121.510;    7.000;  -14.030;  563.060
1122.051;    7.222;  -11.990;  723.580
1122.592;    6.460;  -16.490;  655.420
1123.133;    4.875;  -15.580;  547.940
1123.673;    7.333;  -12.850;  706.480
1124.214;    6.888;  -13.630;  612.460
1124.755;    7.267;  -14.830;  639.460
1125.296;    6.435;  -13.110;  627.320
1125.836;    7.514;  -11.320;  691.500
1126.377;    6.343;  -14.330;  599.660
1126.918;    6.851;  -12.800;  614.980
1127.458;    5.964;  -13.580;  622.220
1127.999;    7.120;  -10.330;  656.980
1128.539;    6.940;  -13.390;  694.240
1129.079;    5.092;  -16.420;  632.720
1129.620;    4.923;  -15.700;  558.100
1130.160;    5.076;  -14.790;  539.480
1130.700;    5.903;  -12.910;  640.840
1131.240;    5.942;  -15.610;  643.700
1131.781;    5.815;  -12.920;  619.680
1132.321;    5.161;  -15.300;  599.120
1132.861;    4.539;  -14.760;  564.200
1133.401;    4.063;  -15.470;  593.940
1133.941;    5.269;  -13.710;  626.280
1134.481;    5.045;  -11.820;  597.580
1135.020;    4.788;  -14.810;  609.160
1135.560;    4.630;  -13.660;  674.940
1136.100;    3.293;  -13.940;  501.160
1136.640;    3.919;  -15.410;  510.480
1137.179;    3.605;  -16.920;  537.960
1137.719;    3.665;  -16.430;  605.400
1138.258;    4.303;  -16.300;  587.360
1138.798;    5.157;  -13.710;  663.780
1139.337;    3.623;  -13.840;  482.840
1139.877;    4.508;  -16.140;  642.360
1140.416;    7.090;  -11.410;  878.060
1140.955;    3.177;  -12.820;  535.380
1141.494;    4.278;  -12.310;  669.280
1142.034;    2.495;  -16.280;  583.520
1142.573;    4.142;  -13.090;  646.280
1143.112;    3.580;  -13.770;  553.480
1143.651;    3.664;  -15.830;  536.480
1144.190;    4.113;  -15.010;  691.640
1144.729;    3.630;  -13.650;  607.420
1145.267;    3.871;  -13.670;  584.900
1145.806;    4.401;  -13.630;  637.040
1146.345;    2.889;  -14.160;  635.020
1146.884;    2.672;  -11.180;  622.500
1147.422;    2.854;  -15.890;  533.060
1147.961;    3.913;  -12.760;  708.460
1148.500;    3.644;  -15.220;  669.720
1149.038;    3.690;  -13.720;  632.500
1149.577;    3.473;  -13.250;  698.640
1150.115;    0.971;  -16.790;  452.280
1150.653;    2.485;  -15.810;  607.340
1151.192;    1.875;  -14.730;  552.920
1151.730;    3.232;  -13.660;  652.560
1152.268;    1.974;  -15.120;  589.520
1152.806;    1.555;  -15.580;  571.180
1153.344;    0.837;  -16.210;  577.640
1153.882;    2.858;  -12.810;  600.060
1154.421;    0.742;  -14.150;  470.620
1154.958;    1.431;  -15.360;  595.240
1155.496;    2.124;  -14.710;  645.280
1156.034;    2.626;  -13.640;  721.880
1156.572;    2.675;  -13.740;  667.060
1157.110;    0.136;  -16.960;  473.940
1157.647;    2.479;  -11.940;  676.960
1158.185;    1.290;  -14.090;  564.320
1158.723;    0.296;  -13.610;  509.200
1159.260;    1.008;  -14.760;  701.700
1159.798;    1.887;  -13.700;  658.160
1160.335;    1.419;  -13.820;  631.820

