
Integration time [ms]:   3.882
Averaging Nr. [scans]: 1000
Smoothing Nr. [pixels]: 0
Data measured with spectrometer [name]: 7414430SP
Wave   ;Sample   ;Dark     ;Reference
[nm]   ;[counts] ;[counts] ;[counts] 

288.544;  125.166;   10.292;  793.890
289.143;  129.034;    4.564;  681.602
289.742;  131.733;    6.144;  828.814
290.341;  118.682;    4.396;  789.841
290.940;  108.578;    0.938;  730.702
291.538;  109.851;   -0.684;  881.108
292.137;  108.981;   -2.845;  792.581
292.736;  113.212;   -0.144;  975.101
293.335;  108.711;   -6.352;  735.086
293.934;  110.844;   -7.642;  781.677
294.532;  112.257;   -4.992; 1031.958
295.131;   96.530;   -5.478;  834.394
295.730;   96.308;   -6.549;  809.588
296.328;   94.136;   -9.558;  783.442
296.927;   94.703;   -8.118;  779.652
297.525;   95.587;   -6.908;  781.236
298.124;   86.631;   -9.195;  654.009
298.722;   91.476;   -8.198;  761.933
299.321;   89.437;   -8.817;  708.597
299.919;   86.203;   -7.716;  751.918
300.518;   82.461;  -10.745;  689.338
301.116;   84.148;   -9.647;  691.381
301.715;   85.033;  -10.828;  730.222
302.313;   84.079;   -6.087;  704.943
302.911;   80.118;   -6.824;  733.830
303.509;   85.735;   -8.807;  925.627
304.108;   82.937;   -8.198;  760.383
304.706;   82.280;   -6.218;  801.664
305.304;   77.183;   -7.185;  796.707
305.902;   83.259;   -8.568;  784.484
306.500;   79.410;   -7.737;  728.200
307.098;   76.005;   -6.026;  746.560
307.696;   75.218;   -7.176;  780.432
308.294;   76.525;   -8.656;  731.359
308.892;   78.751;   -6.838;  759.769
309.490;   73.388;   -2.596;  712.161
310.088;   71.052;   -4.485;  788.444
310.686;   76.233;   -3.907;  821.749
311.284;   73.370;   -2.806;  766.040
311.882;   71.104;   -2.845;  731.225
312.480;   67.331;   -3.274;  697.167
313.078;   68.957;   -3.645;  808.331
313.675;   70.848;   -4.997;  691.600
314.273;   65.372;   -0.894;  797.837
314.871;   64.352;   -2.854;  589.829
315.468;   62.949;   -3.644;  652.090
316.066;   66.336;   -3.947;  694.427
316.664;   59.499;   -1.824;  656.351
317.261;   64.051;    1.565;  910.128
317.859;   58.917;   -3.955;  768.735
318.456;   60.373;   -2.886;  830.096
319.054;   56.372;   -0.995;  787.828
319.651;   55.596;   -1.765;  759.928
320.249;   55.125;   -3.685;  810.188
320.846;   53.314;   -3.736;  714.286
321.443;   50.236;   -2.065;  832.135
322.041;   47.633;   -5.635;  812.315
322.638;   46.237;   -5.985;  701.456
323.235;   48.136;   -6.677;  665.683
323.833;   46.376;   -3.497;  740.354
324.430;   41.128;   -6.756;  615.900
325.027;   43.668;   -7.647;  876.855
325.624;   43.335;   -7.598;  644.532
326.221;   40.476;   -5.848;  689.717
326.818;   40.285;   -5.777;  818.332
327.415;   42.948;   -8.769;  748.828
328.012;   42.674;   -6.299;  690.585
328.609;   40.467;   -6.639;  731.389
329.206;   38.194;   -6.358;  778.621
329.803;   37.775;   -8.698;  737.841
330.400;   39.316;   -8.379;  704.260
330.997;   40.054;   -6.178;  817.147
331.594;   37.492;   -5.646;  788.185
332.191;   42.519;   -6.928;  728.722
332.787;   44.706;   -6.057;  844.463
333.384;   42.057;   -6.445;  763.093
333.981;   39.445;   -8.002;  815.687
334.578;   42.466;   -8.443;  708.378
335.174;   44.179;   -6.053;  731.469
335.771;   44.621;   -5.791;  836.456
336.367;   40.287;   -6.570;  710.631
336.964;   43.807;   -6.741;  793.266
337.561;   44.695;   -5.710;  731.112
338.157;   41.014;   -3.928;  911.916
338.754;   35.742;   -5.577;  796.589
339.350;   35.282;   -9.667;  722.493
339.946;   39.192;   -5.269;  773.135
340.543;   30.733;   -4.485;  846.136
341.139;   24.637;   -7.584;  720.836
341.735;   23.106;   -8.553;  772.593
342.332;   22.492;   -4.984;  691.472
342.928;   24.484;   -3.475;  795.394
343.524;   17.678;   -6.653;  761.684
344.120;   13.966;   -7.173;  738.562
344.716;   17.901;   -4.385;  723.717
345.313;   16.481;   -3.565;  795.342
345.909;   11.357;   -7.495;  627.336
346.505;   13.131;   -8.276;  740.247
347.101;   14.337;   -5.697;  827.864
347.697;   14.850;   -4.767;  785.398
348.293;    8.488;   -7.226;  627.244
348.889;   10.092;   -7.547;  745.914
349.485;   10.111;   -9.147;  688.205
350.081;   10.153;   -6.568;  772.592
350.676;    6.237;   -6.516;  691.606
351.272;   10.947;   -7.378;  809.530
351.868;   10.848;   -6.759;  780.497
352.464;    8.621;   -4.798;  723.932
353.059;    4.464;   -7.977;  646.017
353.655;    8.596;   -8.769;  777.063
354.251;    8.698;   -5.920;  759.845
354.846;    3.254;   -7.647;  740.646
355.442;    1.921;   -6.956;  753.071
356.038;    3.874;   -9.928;  751.708
356.633;    3.284;   -7.698;  728.594
357.229;    1.426;   -6.307;  724.757
357.824;   -0.609;   -7.647;  703.600
358.420;   -1.246;  -10.047;  679.726
359.015;    0.725;   -7.458;  695.357
359.610;    0.531;   -5.748;  763.920
360.206;   -5.784;   -9.346;  603.240
360.801;   -2.394;  -11.268;  646.503
361.396;    0.207;   -8.789;  725.975
361.992;   -4.426;   -6.347;  668.220
362.587;   -7.165;   -6.476;  670.160
363.182;   -4.803;   -9.457;  689.631
363.777;   -3.422;   -7.147;  738.242
364.372;   -4.475;   -5.507;  737.314
364.967;   -8.344;   -6.386;  680.744
365.563;   -3.403;   -7.858;  815.567
366.158;   -5.945;   -8.517;  685.161
366.753;   -5.697;   -8.728;  649.263
367.348;   -7.672;   -7.677;  746.056
367.942;   -7.483;  -10.387;  697.298
368.537;   -7.752;   -7.187;  754.245
369.132;   -8.028;   -8.587;  703.428
369.727;  -12.388;   -8.606;  638.079
370.322;  -10.885;  -10.426;  580.186
370.917;  -10.166;   -5.776;  710.646
371.511;   -7.100;   -6.007;  861.834
372.106;  -11.112;   -6.686;  776.964
372.701;  -14.727;   -9.335;  585.988
373.296;   -7.755;   -6.777;  863.135
373.890;  -13.154;   -7.546;  647.840
374.485;  -14.701;   -8.755;  691.199
375.079;  -11.358;   -9.797;  738.685
375.674;   -9.192;   -6.327;  812.970
376.268;  -14.029;   -9.046;  691.759
376.863;  -19.394;   -7.993;  580.327
377.457;  -13.233;   -9.206;  662.490
378.052;  -15.301;   -5.345;  764.884
378.646;  -15.251;   -5.605;  741.167
379.240;  -16.689;   -6.825;  721.176
379.835;  -14.571;  -10.476;  636.978
380.429;  -17.143;   -8.676;  562.557
381.023;  -16.080;   -4.945;  779.205
381.617;  -19.265;   -8.094;  680.106
382.212;  -16.040;  -10.646;  685.303
382.806;  -14.555;   -8.136;  760.690
383.400;  -19.020;   -7.855;  672.281
383.994;  -20.456;   -8.125;  664.870
384.588;  -15.375;   -7.637;  697.701
385.182;  -13.827;   -7.458;  726.624
385.776;  -15.676;   -6.277;  706.875
386.370;  -19.243;   -7.485;  681.968
386.964;  -17.672;   -9.416;  684.155
387.558;  -15.153;   -8.518;  598.360
388.152;  -19.060;   -7.096;  681.959
388.745;  -17.597;   -7.656;  814.707
389.339;  -15.518;   -8.927;  747.642
389.933;  -14.534;   -9.538;  695.370
390.527;  -15.431;   -5.857;  859.029
391.120;  -22.814;   -9.455;  595.318
391.714;  -18.895;   -9.746;  711.633
392.308;  -15.701;   -7.857;  780.253
392.901;  -19.306;   -9.106;  642.460
393.495;  -21.446;  -10.365;  595.414
394.089;  -19.109;   -9.696;  760.452
394.682;  -19.293;   -7.016;  697.188
395.275;  -20.501;   -8.466;  719.927
395.869;  -21.201;   -8.985;  667.314
396.462;  -19.770;  -11.496;  616.609
397.056;  -15.495;   -7.838;  776.621
397.649;  -19.565;   -6.895;  731.575
398.242;  -17.578;   -5.017;  712.645
398.836;  -16.304;   -8.787;  766.408
399.429;  -17.109;   -8.967;  631.041
400.022;  -21.220;   -8.815;  665.902
400.615;  -18.002;   -6.276;  805.609
401.208;  -16.162;   -8.407;  691.451
401.802;  -19.354;   -7.296;  699.329
402.395;  -20.192;   -7.585;  683.502
402.988;  -21.550;   -8.015;  696.627
403.581;  -17.962;   -9.577;  646.878
404.174;  -14.392;   -7.588;  686.568
404.767;  -18.247;   -7.906;  638.583
405.360;  -20.970;   -7.875;  621.445
405.953;  -14.760;   -8.127;  759.034
406.545;  -13.429;   -7.198;  725.342
407.138;  -18.930;   -8.916;  618.350
407.731;  -17.938;   -9.767;  613.303
408.324;  -12.643;  -10.659;  660.554
408.917;  -14.199;   -8.068;  681.864
409.509;  -16.093;   -9.837;  740.396
410.102;  -17.664;   -8.146;  643.948
410.695;  -11.742;   -7.969;  665.758
411.287;  -13.466;   -8.579;  599.821
411.880;  -13.868;   -6.968;  585.421
412.472;  -16.536;   -9.487;  613.092
413.065;  -13.286;  -10.338;  629.408
413.657;  -11.100;   -9.169;  576.678
414.250;  -10.937;  -10.119;  646.681
414.842;  -13.177;   -9.938;  676.353
415.434;  -11.685;  -10.409;  570.463
416.027;   -6.993;   -9.591;  652.196
416.619;   -9.145;   -7.379;  713.400
417.211;   -9.737;   -9.159;  599.352
417.804;   -5.284;   -9.191;  628.499
418.396;   -9.427;   -8.159;  607.643
418.988;   -7.286;   -6.960;  659.238
419.580;  -10.995;  -11.389;  568.276
420.172;   -8.697;  -13.460;  536.196
420.764;   -3.641;  -10.701;  672.482
421.356;   -4.911;   -8.961;  636.898
421.948;   -5.657;   -9.770;  677.661
422.540;   -0.873;   -8.832;  680.027
423.132;   -1.212;   -8.153;  600.641
423.724;   -4.947;   -8.481;  561.267
424.316;   -3.128;   -9.261;  621.345
424.908;    0.371;   -9.643;  591.517
425.500;    2.125;   -8.663;  647.978
426.092;    2.392;   -8.503;  648.268
426.683;    0.552;  -10.522;  684.836
427.275;    3.831;  -11.734;  641.471
427.867;    5.863;  -10.264;  668.948
428.458;    6.075;   -7.644;  732.344
429.050;    3.815;   -7.853;  680.749
429.642;    6.765;   -8.904;  743.124
430.233;    7.360;  -10.795;  569.356
430.825;    8.750;   -7.665;  724.809
431.416;    6.331;   -8.843;  698.241
432.008;    9.425;   -9.885;  651.723
432.599;   10.326;   -9.966;  656.073
433.190;    7.361;   -9.164;  637.670
433.782;    6.624;   -8.584;  590.395
434.373;   15.317;   -8.296;  884.765
434.964;   13.130;   -9.896;  602.920
435.556;   10.236;   -8.255;  634.537
436.147;   13.308;   -8.075;  758.490
436.738;   13.671;   -9.716;  701.099
437.329;   18.731;   -7.318;  721.723
437.920;   11.768;   -6.694;  666.688
438.511;   11.441;   -9.644;  564.526
439.103;   18.565;   -9.427;  623.998
439.694;   20.340;  -10.748;  681.583
440.285;   21.489;   -7.997;  764.432
440.876;   19.398;  -10.046;  845.738
441.466;   18.345;  -13.467;  575.162
442.057;   23.743;   -9.329;  665.814
442.648;   22.917;   -7.707;  746.255
443.239;   21.003;   -9.017;  620.477
443.830;   26.078;  -10.279;  704.958
444.421;   27.576;  -12.630;  655.474
445.011;   24.201;   -8.697;  693.619
445.602;   23.989;   -7.787;  743.126
446.193;   25.601;  -13.329;  488.117
446.783;   30.624;   -9.171;  640.397
447.374;   26.578;   -7.457;  692.759
447.964;   26.881;   -9.277;  713.770
448.555;   34.963;   -9.041;  822.742
449.145;   31.996;   -8.969;  662.853
449.736;   32.375;   -6.809;  803.179
450.326;   32.063;   -7.229;  713.626
450.917;   37.306;  -11.391;  675.324
451.507;   36.907;   -9.501;  600.661
452.097;   37.000;   -8.460;  746.267
452.688;   37.848;  -10.080;  742.160
453.278;   38.039;  -12.861;  566.840
453.868;   42.652;   -8.372;  793.550
454.458;   40.640;   -8.131;  651.141
455.048;   41.081;   -8.520;  711.783
455.639;   42.347;  -13.632;  567.096
456.229;   47.017;  -10.143;  710.694
456.819;   47.460;   -9.163;  751.158
457.409;   48.102;   -8.652;  773.993
457.999;   50.724;   -9.933;  737.505
458.589;   51.840;  -10.363;  686.606
459.179;   50.887;  -10.633;  717.658
459.769;   48.729;  -12.442;  627.099
460.358;   53.709;   -9.844;  797.262
460.948;   54.351;   -9.924;  689.503
461.538;   56.039;  -10.484;  660.677
462.128;   53.484;  -10.703;  664.934
462.717;   59.851;  -11.486;  710.326
463.307;   62.537;  -10.767;  705.846
463.897;   58.944;   -8.814;  656.942
464.486;   59.148;   -8.182;  837.128
465.076;   62.153;   -9.985;  733.776
465.666;   66.452;  -10.447;  652.900
466.255;   64.317;   -7.754;  785.651
466.845;   62.972;  -10.884;  666.749
467.434;   66.207;  -12.525;  725.873
468.023;   67.209;  -11.456;  658.357
468.613;   64.706;   -9.173;  713.946
469.202;   69.093;   -9.306;  646.507
469.791;   73.326;   -8.917;  737.811
470.381;   75.375;   -9.657;  742.813
470.970;   74.770;   -9.947;  711.099
471.559;   74.181;   -9.256;  733.291
472.148;   77.493;  -13.397;  675.737
472.738;   80.661;   -9.928;  765.466
473.327;   79.689;  -10.897;  637.529
473.916;   79.367;   -8.526;  737.446
474.505;   83.868;  -11.078;  751.703
475.094;   87.655;   -9.559;  806.570
475.683;   86.145;   -8.838;  797.699
476.272;   87.113;  -10.198;  730.632
476.861;   89.420;  -11.489;  706.754
477.449;   97.119;  -10.721;  728.487
478.038;   91.361;   -9.818;  692.513
478.627;   91.687;   -9.887;  714.852
479.216;   98.441;  -10.030;  769.441
479.805;  101.698;   -9.401;  783.375
480.393;  101.924;   -5.739; 1008.945
480.982;  100.247;   -7.838;  874.501
481.571;  106.525;   -9.111;  858.333
482.159;  107.197;  -10.601;  705.386
482.748;  106.935;   -8.500;  821.385
483.336;  111.054;   -9.241;  858.209
483.925;  111.894;  -10.440;  774.373
484.513;  118.767;  -11.063;  758.962
485.102;  115.327;   -9.540;  810.965
485.690;  124.325;   -6.742; 1011.050
486.278;  126.900;   -8.442;  979.329
486.867;  126.990;  -10.472;  809.662
487.455;  129.476;   -8.811;  898.229
488.043;  130.198;  -10.721;  748.361
488.631;  139.471;  -10.393; 1005.079
489.220;  142.583;  -10.843;  908.626
489.808;  142.082;  -10.572;  741.415
490.396;  151.036;  -10.482;  914.645
490.984;  157.413;  -11.542;  830.161
491.572;  167.807;   -8.463;  940.315
492.160;  172.237;   -8.491;  919.081
492.748;  181.750;   -9.681;  884.341
493.336;  200.138;  -10.493; 1019.693
493.924;  225.370;   -9.354;  958.077
494.512;  256.487;   -9.132; 1066.638
495.100;  292.238;   -9.001; 1103.280
495.687;  343.182;  -11.924; 1206.373
496.275;  408.715;  -11.193; 1150.796
496.863;  504.208;   -9.241; 1281.171
497.451;  613.918;  -11.341; 1386.805
498.038;  708.069;  -11.364; 1556.729
498.626;  814.896;   -8.104; 1741.407
499.214;  990.491;   -8.842; 2016.609
499.801; 1176.296;  -10.112; 2220.633
500.389; 1369.529;  -11.953; 2312.494
500.976; 1612.638;  -10.023; 2744.849
501.564; 1901.648;   -8.662; 3148.565
502.151; 2255.159;  -10.531; 3515.999
502.738; 2622.581;  -13.853; 3971.274
503.326; 3145.975;  -10.794; 4403.796
503.913; 3704.710;   -8.663; 5161.749
504.500; 4050.184;  -10.172; 5986.420
505.088; 4358.256;  -13.472; 6381.201
505.675; 5028.167;  -10.924; 6925.547
506.262; 5781.017;   -8.551; 7619.060
506.849; 6595.276;  -10.523; 8733.969
507.436; 7271.741;  -10.834; 9790.121
508.023; 7514.642;   -9.093; 9985.472
508.610; 7925.415;  -10.073;10434.618
509.197; 8444.481;   -9.500;11198.435
509.784; 9673.528;  -13.242;12391.194
510.371;10433.479;  -10.964;13603.713
510.958;10300.605;   -9.772;14426.586
511.545;11342.362;   -7.842;15243.775
512.132;11624.124;  -12.184;15945.876
512.719;11747.866;   -9.733;16340.369
513.305;13545.907;   -9.172;18011.766
513.892;15124.190;   -9.581;19754.971
514.479;16961.998;  -10.253;20967.805
515.066;19125.467;   -8.183;22299.793
515.652;20373.469;   -9.253;22908.660
516.239;21364.998;   -9.412;23798.875
516.825;23663.459;  -11.153;25567.275
517.412;23682.850;  -10.263;28154.959
517.998;23977.492;   -8.802;28344.111
518.585;23708.191;  -10.401;27134.219
519.171;23523.992;  -12.744;27268.576
519.758;25336.725;  -11.793;28964.129
520.344;27470.650;   -8.912;30664.494
520.930;27215.859;  -10.901;32550.605
521.516;27926.340;  -12.034;35422.895
522.103;29017.146;  -10.473;38280.004
522.689;30519.979;   -8.311;37835.117
523.275;34085.297;  -10.691;37288.613
523.861;35480.605;  -11.193;37281.395
524.447;36103.773;  -11.484;37846.949
525.033;36013.258;   -7.702;38321.949
525.619;35688.262;  -11.241;38579.285
526.205;36827.711;  -12.152;40622.875
526.791;36315.652;  -11.423;42258.836
527.377;33481.648;   -7.981;42966.902
527.963;33894.492;   -9.450;42018.949
528.549;37199.301;  -11.351;42476.828
529.135;38235.363;  -10.202;41854.852
529.721;36134.434;   -8.672;41237.711
530.306;33094.996;   -9.111;41259.445
530.892;33950.168;  -11.252;41506.047
531.478;37117.145;  -10.432;43559.613
532.063;41587.055;  -10.721;47695.563
532.649;45079.379;   -7.450;50808.324
533.235;46077.277;  -11.811;51787.500
533.820;46142.758;   -9.383;52145.035
534.406;45075.805;   -9.400;51133.488
534.991;43293.605;   -8.861;49996.805
535.576;39712.434;  -10.612;48882.852
536.162;34393.383;   -7.322;46942.285
536.747;32552.662;   -9.360;45711.746
537.333;36472.410;  -10.450;48510.180
537.918;43221.523;  -12.610;50439.891
538.503;48643.102;  -12.132;50863.711
539.088;48040.492;  -10.831;50906.922
539.673;45740.711;  -11.220;52621.965
540.259;47273.707;  -11.481;52368.094
540.844;50400.887;  -11.462;50879.109
541.429;52023.234;   -7.869;52077.777
542.014;52827.844;  -11.859;52716.695
542.599;52058.184;  -11.061;52363.281
543.184;51256.785;  -12.300;53187.137
543.769;50590.051;   -9.369;54697.605
544.354;50662.563;  -12.020;53913.914
544.938;47634.547;  -10.350;49680.164
545.523;44851.383;  -10.841;47386.277
546.108;46392.496;   -8.579;49151.949
546.693;48897.633;   -8.818;51384.637
547.278;50042.512;  -11.331;51853.254
547.862;46416.793;  -10.292;51173.750
548.447;42155.789;   -8.349;51691.395
549.031;43261.598;  -10.838;52456.703
549.616;48764.719;  -11.681;52714.516
550.201;52116.379;  -11.140;52414.598
550.785;50248.348;   -8.649;52355.059
551.370;49875.953;  -11.889;54589.453
551.954;49763.531;  -11.239;58267.348
552.538;49377.219;   -8.850;59062.176
553.123;50584.066;  -10.829;58115.285
553.707;50762.648;   -8.887;56556.285
554.291;49671.168;  -10.430;56201.668
554.876;47591.031;   -9.799;55335.762
555.460;48537.074;  -10.018;54155.703
556.044;49866.840;   -7.307;53721.484
556.628;46889.867;  -12.229;53731.016
557.212;43653.484;   -9.820;54312.531
557.796;42984.742;   -9.109;53797.773
558.380;44999.074;   -9.707;56145.984
558.964;43984.973;  -10.980;57277.930
559.548;44133.063;  -12.010;56459.641
560.132;47631.797;   -7.928;54434.543
560.716;49247.797;  -10.247;54800.617
561.300;49008.695;  -11.250;57606.945
561.884;50866.453;  -10.568;58972.445
562.467;49495.988;   -9.727;57327.570
563.051;48083.875;  -11.847;54962.434
563.635;46682.875;  -10.747;52594.473
564.219;43155.129;  -13.108;50610.410
564.802;40041.727;  -11.417;49551.180
565.386;41186.973;  -10.457;48370.953
565.969;42921.547;   -8.959;48178.871
566.553;42259.855;  -10.328;49957.305
567.136;41090.543;  -10.257;50369.594
567.720;40921.289;  -10.186;49492.004
568.303;41276.449;  -10.027;50616.352
568.887;42245.617;  -10.397;50727.148
569.470;40464.168;   -8.185;51698.379
570.053;39404.418;  -11.596;52122.078
570.637;39138.859;  -11.378;52536.438
571.220;38923.383;   -9.138;51186.098
571.803;38166.438;   -7.675;51032.762
572.386;36648.813;   -8.976;49609.887
572.969;34279.641;  -12.477;48285.926
573.552;35324.680;   -9.767;47624.285
574.135;35860.137;   -8.175;45498.641
574.718;32524.438;  -11.096;41970.434
575.301;30696.605;  -11.966;41447.137
575.884;28868.773;  -12.836;40923.836
576.467;32874.641;   -9.116;45267.723
577.050;33743.250;  -10.536;48175.543
577.633;34751.395;  -11.027;47729.328
578.216;35816.043;   -9.946;47579.793
578.799;35810.918;   -9.645;47820.996
579.381;36775.813;   -9.446;48115.551
579.964;38396.039;  -12.217;47333.766
580.547;39239.941;  -10.586;46668.969
581.129;39349.629;   -8.374;44466.141
581.712;37146.059;  -10.434;44164.922
582.294;34984.730;  -10.896;46477.855
582.877;35108.941;   -8.906;48244.254
583.459;36007.305;   -9.994;47437.895
584.042;36769.387;  -10.084;46943.219
584.624;37066.602;  -13.534;46792.227
585.206;35157.680;  -12.716;46557.250
585.789;35388.379;  -11.614;45793.773
586.371;33504.602;  -10.203;43836.391
586.953;30932.502;  -10.314;42972.492
587.536;31487.748;   -9.776;42487.211
588.118;33005.484;   -9.821;42086.414
588.700;34212.520;  -10.073;43389.930
589.282;32735.885;  -12.395;43646.039
589.864;32101.691;  -11.514;43438.109
590.446;32335.605;  -10.803;43151.926
591.028;31675.553;  -11.043;42781.867
591.610;31746.246;  -13.244;42839.098
592.192;31465.037;  -11.095;42820.402
592.774;30028.080;  -10.823;40724.277
593.356;29226.057;  -11.052;39874.789
593.937;30572.725;  -11.664;39980.648
594.519;34185.785;  -10.454;42069.633
595.101;37027.418;  -10.322;42976.031
595.683;36293.785;  -10.042;44084.441
596.264;32655.430;  -14.334;43478.797
596.846;33866.684;  -10.863;43803.672
597.427;32933.324;   -9.901;42986.934
598.009;31492.764;  -10.911;42832.219
598.591;31992.543;  -10.483;42580.086
599.172;33515.738;   -9.663;43061.805
599.753;34493.902;  -10.631;41691.469
600.335;34889.844;   -9.371;40692.520
600.916;32889.598;  -13.992;39982.422
601.498;32334.889;   -8.352;40318.617
602.079;32982.996;   -8.411;40670.609
602.660;32712.781;  -10.841;41450.898
603.241;32238.730;  -12.963;41137.738
603.823;32693.982;  -11.523;38868.797
604.404;32442.326;  -11.881;38182.785
604.985;33321.352;  -11.721;38078.047
605.566;33205.945;   -9.293;38056.633
606.147;31841.646;  -10.940;37020.418
606.728;33385.203;  -11.840;37883.359
607.309;34367.973;  -11.781;38748.273
607.890;34725.383;  -11.262;38850.230
608.471;32945.004;  -10.111;37457.918
609.051;32612.676;   -7.709;36066.457
609.632;30057.818;  -12.409;35991.074
610.213;30403.490;  -10.811;37402.641
610.794;31855.342;  -11.630;38383.363
611.374;35321.863;   -8.030;40562.387
611.955;35456.426;  -10.809;38533.727
612.536;34035.813;  -10.531;36951.789
613.116;33914.523;  -12.820;37197.891
613.697;34944.707;  -11.419;38411.125
614.277;36051.449;   -9.768;38673.938
614.858;32885.641;  -10.251;37075.863
615.438;29392.711;  -11.981;35092.906
616.019;27221.389;   -8.978;33666.301
616.599;29615.176;  -12.219;34189.023
617.179;31828.277;  -14.170;36952.047
617.760;32678.123;   -9.211;39582.574
618.340;32830.613;   -9.018;38943.977
618.920;33172.113;   -9.249;37594.156
619.500;33236.668;  -12.728;37866.938
620.080;33639.141;  -12.939;37869.043
620.660;34680.676;  -11.586;36868.617
621.241;34252.426;  -11.538;36352.309
621.821;32946.648;  -11.398;35459.520
622.401;31573.178;  -10.179;35207.414
622.980;31640.734;  -11.587;35980.422
623.560;33185.328;  -12.888;37351.328
624.140;31510.879;  -13.149;34388.582
624.720;27268.027;   -9.928;32368.764
625.300;26745.561;  -10.869;32638.629
625.880;29406.025;   -8.617;34599.035
626.459;30518.164;  -12.138;36831.738
627.039;33063.332;  -12.267;38299.098
627.619;36434.469;   -7.476;38289.574
628.198;37981.258;  -11.347;37220.695
628.778;35332.238;  -11.678;37632.563
629.357;32659.146;  -12.438;38003.012
629.937;31887.555;   -9.576;38402.039
630.516;31685.350;  -11.096;37868.801
631.096;32642.090;  -11.828;35760.410
631.675;33958.258;  -11.565;35225.219
632.254;34626.113;  -11.845;35130.289
632.834;36165.230;  -11.545;35794.570
633.413;35601.742;  -10.887;35788.922
633.992;35120.883;  -10.175;34532.863
634.571;35802.000;   -9.704;33590.113
635.151;34269.621;  -10.815;34943.863
635.730;32900.891;  -11.617;35352.523
636.309;32659.230;  -10.836;35366.605
636.888;33348.938;   -9.755;36165.637
637.467;33455.730;  -11.684;37515.902
638.046;33638.184;  -11.987;39288.695
638.625;33223.625;  -10.455;38279.699
639.204;32992.746;  -11.234;37741.598
639.782;33799.035;  -12.023;38364.551
640.361;32051.707;  -11.506;36740.621
640.940;29063.219;  -12.316;34950.082
641.519;27087.195;  -11.616;34137.398
642.097;29317.600;   -9.266;35654.258
642.676;33101.320;  -12.936;35637.957
643.255;33687.406;   -9.966;36567.074
643.833;34300.211;   -8.916;37809.434
644.412;32275.979;  -10.936;37337.293
644.990;31563.957;  -12.176;37018.531
645.569;32536.434;  -12.246;36518.469
646.147;35362.105;  -12.107;36186.430
646.726;37968.453;  -12.937;36267.688
647.304;34967.117;  -12.547;36647.625
647.882;33865.715;  -12.597;39286.742
648.461;33086.656;   -9.427;39157.703
649.039;33090.746;   -8.937;35412.883
649.617;33948.488;  -11.067;34744.918
650.195;32567.818;  -10.657;35403.098
650.773;29999.328;  -10.097;35053.797
651.352;29378.291;  -11.887;33756.816
651.930;28338.744;  -13.557;31868.773
652.508;28309.869;  -11.767;33121.551
653.086;31135.979;  -10.777;33564.793
653.663;33958.105;  -12.067;34054.668
654.241;36560.793;  -14.918;35693.309
654.819;36133.559;  -11.788;36422.906
655.397;33984.160;  -11.268;38213.484
655.975;32212.826;  -11.738;39507.625
656.553;30396.885;  -11.018;39498.223
657.130;29211.766;  -12.848;40395.480
657.708;28047.764;  -10.098;39242.020
658.286;29088.760;  -11.678;38920.020
658.863;31696.689;  -11.498;40202.898
659.441;34508.297;  -11.008;39677.938
660.018;36339.000;  -11.048;40413.355
660.596;37183.277;  -12.058;39931.414
661.173;37765.727;  -14.158;39604.531
661.750;36960.926;  -12.298;39700.070
662.328;36351.559;  -10.699;39292.809
662.905;35864.621;  -12.119;38235.648
663.482;32021.631;  -11.829;36212.305
664.060;28261.057;  -11.009;35944.945
664.637;31429.811;  -10.369;35170.785
665.214;33968.379;  -10.459;34197.523
665.791;33106.625;  -12.599;34549.520
666.368;30570.844;  -12.919;35118.578
666.945;28843.693;  -10.699;36019.418
667.522;29947.010;  -11.359;36048.438
668.099;30548.596;  -13.529;36243.914
668.676;29289.244;  -10.229;35958.875
669.253;28815.549;   -9.279;37384.730
669.830;28417.828;  -11.370;36779.629
670.407;28293.979;  -10.950;35231.289
670.984;29289.813;  -12.850;35544.270
671.560;28122.383;   -8.440;35466.867
672.137;28989.984;  -13.520;34280.863
672.714;30508.195;  -13.620;34632.863
673.290;30991.982;  -10.450;35135.422
673.867;30000.666;  -10.960;36114.480
674.443;30950.303;  -13.300;36152.859
675.020;29191.066;  -12.370;35327.238
675.596;28487.262;  -11.250;35795.176
676.173;29085.854;  -11.080;35430.355
676.749;28885.930;  -13.220;33549.516
677.326;29901.100;  -13.000;32210.012
677.902;29723.324;  -12.701;32068.871
678.478;28328.457;  -12.801;32583.891
679.054;29097.131;   -8.601;32088.928
679.631;30174.348;  -12.631;30978.848
680.207;30952.666;   -9.451;33160.887
680.783;30338.680;  -11.701;35570.363
681.359;30764.461;  -12.701;36125.184
681.935;32740.127;  -13.271;35240.922
682.511;34782.574;  -10.791;34429.961
683.087;32717.881;  -10.791;34463.680
683.663;29329.473;   -8.121;34648.898
684.239;27054.434;  -13.261;34546.457
684.815;27740.279;  -10.581;35586.375
685.390;29670.492;   -9.961;35821.895
685.966;29217.342;  -11.182;35085.871
686.542;28332.762;  -13.512;34198.230
687.118;26357.381;  -11.472;32847.707
687.693;25296.396;  -10.152;32794.027
688.269;25762.916;  -14.442;33072.367
688.844;24818.244;  -11.852;33141.664
689.420;23739.373;  -13.942;33965.742
689.995;24991.953;   -9.702;34655.523
690.571;26764.715;  -11.312;33576.742
691.146;26966.242;  -14.332;32657.219
691.722;26680.904;  -11.192;32526.979
692.297;27511.594;  -10.962;33014.617
692.872;29016.334;  -11.082;34012.254
693.448;29749.209;  -14.732;34237.434
694.023;29058.305;  -12.363;34142.672
694.598;27175.977;  -12.393;34132.031
695.173;27739.227;  -11.023;34205.250
695.748;29285.768;  -12.743;32882.488
696.323;28698.965;  -11.103;32864.906
696.898;27835.908;   -8.123;33170.004
697.473;27503.367;  -12.603;32432.984
698.048;27926.855;  -12.553;31649.303
698.623;29283.072;  -12.573;30778.141
699.198;29084.105;  -12.743;31140.119
699.773;28307.611;  -12.843;31764.299
700.348;28734.992;  -16.683;31780.816
700.922;29935.559;  -11.403;32046.375
701.497;31481.963;  -11.253;32603.574
702.072;30788.734;  -10.044;34799.871
702.646;30130.863;  -13.054;35793.172
703.221;30793.209;  -11.414;35201.590
703.795;30216.281;  -10.644;34764.527
704.370;28314.939;  -13.484;34307.367
704.944;27373.861;  -12.144;33509.887
705.519;26836.258;  -12.024;31388.584
706.093;28485.750;  -11.234;31340.104
706.668;29661.125;   -9.874;32630.281
707.242;28752.455;  -12.404;32728.779
707.816;27089.840;  -10.644;32947.238
708.390;26669.113;  -11.174;33277.855
708.965;26696.813;  -10.324;33834.336
709.539;27324.547;  -12.014;33709.273
710.113;27639.219;  -12.295;33044.313
710.687;29085.197;  -10.965;31953.992
711.261;31063.156;  -13.685;30505.949
711.835;29609.828;  -15.335;30262.369
712.409;28296.867;  -13.785;31254.447
712.983;28470.193;  -10.525;32754.986
713.557;26785.916;  -13.175;34018.824
714.131;26669.016;  -13.245;34579.625
714.704;29865.842;  -13.175;33890.262
715.278;32304.879;  -11.545;33531.102
715.852;30833.498;  -10.975;33601.660
716.425;29112.059;  -10.075;33515.117
716.999;29425.252;  -12.185;33185.555
717.573;31686.813;   -9.685;33905.996
718.146;32588.549;  -10.516;35199.293
718.720;31284.031;  -12.106;35060.551
719.293;29661.213;  -12.386;34973.230
719.867;29575.957;  -12.456;36394.449
720.440;29418.115;  -10.686;36663.008
721.013;29582.365;  -12.596;35102.426
721.587;31163.879;  -13.956;33985.266
722.160;33306.531;   -9.806;33524.965
722.733;34050.406;  -11.676;32987.043
723.306;33471.484;  -14.276;33066.301
723.880;31226.023;  -12.126;33399.500
724.453;28720.004;  -10.156;33468.297
725.026;28296.336;  -12.956;33816.637
725.599;28377.744;  -11.676;32797.996
726.172;28748.654;  -12.337;33187.434
726.745;28960.391;  -11.277;35136.613
727.318;28945.152;  -11.927;35751.730
727.891;28178.227;  -13.607;35890.430
728.463;25897.922;  -11.327;34822.090
729.036;25721.313;  -11.917;32895.086
729.609;27386.789;  -12.697;31823.225
730.182;28208.133;  -11.787;31445.283
730.754;27807.551;  -12.957;32373.223
731.327;27473.123;  -11.017;33676.820
731.900;27189.121;  -12.797;33417.000
732.472;26531.420;  -10.677;31978.498
733.045;25959.063;  -12.797;30368.777
733.617;26071.623;  -13.908;30574.215
734.190;25024.271;  -12.258;31280.975
734.762;25147.104;  -13.438;31674.412
735.334;26407.256;  -11.758;31247.291
735.907;29096.900;  -11.158;29876.211
736.479;32447.441;  -11.258;29808.488
737.051;33056.492;  -10.918;30233.547
737.623;32045.664;  -11.038;31469.086
738.195;33230.633;  -12.188;31784.225
738.768;30911.793;  -11.378;32120.523
739.340;25048.885;  -12.598;32094.342
739.912;23268.133;  -11.568;31312.680
740.484;25036.316;   -9.348;31946.238
741.056;27669.484;  -12.628;32984.059
741.628;29637.855;  -13.349;33897.715
742.199;28653.617;  -11.309;33213.016
742.771;28983.236;  -12.699;31369.113
743.343;29925.828;  -11.919;31865.473
743.915;29634.000;  -11.679;32388.631
744.487;27881.811;  -12.249;31079.568
745.058;25413.223;  -11.119;30570.107
745.630;24193.781;   -9.439;29970.127
746.201;23592.768;  -11.949;29186.766
746.773;23966.172;  -12.639;28805.723
747.344;25288.117;  -11.039;29591.223
747.916;27406.174;  -12.549;31412.201
748.487;26376.643;  -12.659;32194.898
749.059;24711.596;  -13.059;32533.719
749.630;23983.496;  -12.080;32158.518
750.201;22351.234;  -13.100;30855.395
750.773;21560.391;  -15.310;28622.555
751.344;21189.586;  -12.240;28405.732
751.915;21249.535;  -11.960;28461.551
752.486;20370.682;  -13.200;27842.850
753.057;19071.877;  -15.230;27845.008
753.628;20220.156;  -13.130;27728.107
754.199;22729.869;  -12.720;27381.086
754.770;22920.955;  -10.680;25882.203
755.341;21539.705;  -11.010;25886.184
755.912;21041.436;  -12.990;26050.861
756.483;20446.301;  -11.110;26798.779
757.054;19988.678;  -12.190;27048.238
757.625;19925.551;  -13.981;26294.838
758.195;20009.523;  -11.041;26142.076
758.766;21104.854;  -11.861;26392.234
759.337;21529.477;  -11.461;26334.594
759.907;20947.750;  -15.001;27579.652
760.478;19792.137;   -9.681;28352.770
761.048;18581.305;  -12.421;27325.088
761.619;19441.684;  -11.761;26460.428
762.189;20025.391;  -12.391;26029.826
762.760;19348.352;  -10.201;26430.145
763.330;19861.645;  -10.811;26670.902
763.900;20482.197;  -10.261;26603.021
764.471;19537.336;  -13.061;25542.740
765.041;18110.793;  -11.051;24358.459
765.611;17948.533;  -11.032;23991.297
766.181;18117.691;  -10.532;24470.236
766.751;18508.313;  -13.502;24845.975
767.321;19721.615;  -11.392;24533.633
767.891;21518.869;  -11.522;24916.492
768.461;22843.930;  -13.672;24776.771
769.031;20389.865;  -14.652;24757.988
769.601;17501.000;  -10.182;24181.088
770.171;16288.715;  -11.752;23670.387
770.741;15344.149;  -12.272;22960.045
771.311;15074.454;  -13.112;22917.523
771.880;16046.845;  -14.122;23562.941
772.450;16775.000;  -11.782;24216.500
773.020;16941.691;  -12.642;24140.398
773.589;16071.343;  -13.043;24414.857
774.159;15468.310;  -11.783;23858.717
774.729;16280.463;  -13.473;22942.135
775.298;17092.262;  -14.523;22324.033
775.867;16756.146;  -12.013;21140.313
776.437;16087.044;  -12.113;20838.092
777.006;15744.412;  -13.543;20599.510
777.576;16325.302;  -12.523;20508.809
778.145;16525.693;  -12.173;20732.947
778.714;15861.062;  -12.153;21062.465
779.283;15080.767;  -11.833;20949.664
779.853;15183.333;  -13.483;20508.623
780.422;15326.023;  -12.933;20649.082
780.991;14841.295;  -13.173;21527.520
781.560;14572.097;  -10.224;22632.658
782.129;15048.734;  -12.684;23048.277
782.698;15108.495;  -11.284;23438.555
783.267;14962.928;  -11.684;23267.734
783.836;14721.026;  -10.974;22415.133
784.404;14301.410;  -13.534;20443.152
784.973;13488.370;  -16.734;19699.150
785.542;12339.573;  -12.594;19763.828
786.111;11976.192;  -11.644;20341.408
786.679;13018.055;  -11.384;20207.967
787.248;13303.795;  -12.014;19516.465
787.817;12154.720;  -12.804;18900.363
788.385;10896.128;  -11.994;17879.121
788.954;11215.644;  -12.564;17658.301
789.522;12226.561;  -12.225;17788.879
790.090;12256.326;  -13.775;18118.277
790.659;12060.645;  -12.485;18338.736
791.227;12751.041;  -12.295;18508.615
791.795;13440.236;  -13.415;17898.254
792.364;13930.456;  -12.995;17295.133
792.932;13702.150;   -8.365;16822.051
793.500;12589.114;  -11.925;17040.148
794.068;12682.644;  -13.245;17179.787
794.636;13463.190;  -13.815;16664.246
795.204;13501.025;  -13.375;16524.545
795.772;13295.475;  -12.125;17274.564
796.340;12461.438;  -13.855;17891.002
796.908;10822.583;  -13.456;17648.561
797.476; 9953.122;  -13.116;17064.080
798.044;10173.962;  -13.226;16672.777
798.612;10518.889;  -11.236;17023.996
799.180;10420.445;  -10.476;16561.615
799.747;10002.085;  -11.746;15962.773
800.315; 9552.152;  -12.366;15296.992
800.883; 8966.880;  -14.616;14801.771
801.450; 9080.096;  -11.996;14534.430
802.018; 9942.051;  -11.206;14173.248
802.585;10385.387;  -12.466;14029.547
803.153; 9880.713;  -12.846;13836.846
803.720; 9238.973;  -12.136;13567.324
804.287; 9382.251;  -10.966;13360.622
804.855; 9539.825;   -9.797;13681.981
805.422; 8780.972;  -13.037;13536.560
805.989; 8074.367;  -12.697;13355.958
806.556; 8255.381;  -11.737;13747.896
807.124; 8948.490;  -11.997;13987.376
807.691; 8734.578;  -13.997;14038.674
808.258; 8123.573;  -10.927;14120.152
808.825; 8361.397;  -13.727;13860.111
809.392; 8437.896;  -11.847;13268.790
809.959; 8422.532;  -14.217;12680.389
810.526; 8382.017;   -8.277;12427.308
811.093; 8510.646;   -9.647;12030.105
811.659; 8540.399;  -10.987;11653.664
812.226; 7938.060;  -13.447;11637.183
812.793; 7457.053;  -14.418;11611.521
813.360; 7612.091;  -13.908;11885.181
813.926; 8112.511;  -12.918;12770.539
814.493; 8359.189;  -14.888;12677.638
815.060; 7938.112;  -12.758;11974.336
815.626; 7624.048;  -13.478;11594.715
816.193; 7570.310;  -13.898;11579.474
816.759; 7684.664;  -13.588;11666.972
817.325; 7681.912;  -12.018;11325.530
817.892; 7321.100;  -14.068;11105.369
818.458; 7356.061;  -13.458;10843.928
819.024; 7247.465;  -11.968;10714.406
819.591; 7024.752;  -11.028;10469.165
820.157; 7115.002;  -12.088;10235.523
820.723; 7212.037;  -12.599;10847.563
821.289; 6892.488;  -10.419;11040.980
821.855; 6667.045;  -10.939;10357.100
822.421; 6640.206;  -12.539; 9978.918
822.987; 6586.721;  -13.259; 9754.177
823.553; 6380.933;  -15.369;10065.755
824.119; 6239.023;  -10.779;10036.294
824.685; 6225.803;   -9.999;10029.192
825.251; 6082.153;  -11.819;10199.230
825.816; 6011.543;  -13.369; 9820.189
826.382; 5872.350;  -12.679; 9297.248
826.948; 5421.492;  -11.199; 9381.347
827.513; 5226.343;  -11.179; 9450.726
828.079; 5331.334;  -13.489; 9472.444
828.645; 5453.197;  -12.500; 9292.643
829.210; 5450.137;  -15.120; 9065.341
829.776; 5401.012;  -12.590; 9132.620
830.341; 5516.310;  -11.540; 9092.878
830.906; 5883.785;  -12.400; 9078.557
831.472; 5876.492;  -12.720; 8534.535
832.037; 5168.480;  -11.490; 8677.874
832.602; 4517.222;  -14.380; 8628.692
833.167; 4259.621;  -12.780; 8879.031
833.733; 4472.277;  -11.100; 9189.790
834.298; 4808.890;  -12.080; 9052.608
834.863; 4643.944;  -13.910; 8895.087
835.428; 4364.107;  -13.470; 8824.266
835.993; 4193.455;  -11.760; 8845.385
836.558; 4360.873;  -12.731; 8888.563
837.123; 4516.479;  -12.431; 8966.582
837.688; 4359.126;  -11.241; 8617.860
838.253; 4183.702;  -13.681; 8590.699
838.817; 4302.681;  -12.531; 8443.797
839.382; 4437.305;  -12.671; 8799.356
839.947; 4497.289;  -11.541; 8810.595
840.511; 4619.809;  -12.021; 8796.394
841.076; 4685.942;  -13.071; 8347.231
841.641; 4882.548;  -11.411; 8224.330
842.205; 5111.505;  -13.671; 8223.349
842.770; 5010.165;  -11.291; 8622.107
843.334; 4730.765;  -12.951; 8410.386
843.898; 4472.583;  -11.221; 8337.465
844.463; 4527.852;  -11.322; 8506.283
845.027; 4516.853;  -11.412; 8280.962
845.591; 4268.511;  -11.512; 8231.141
846.156; 4128.670;  -14.042; 7969.179
846.720; 4175.221;  -12.152; 7768.278
847.284; 3987.344;  -10.922; 7630.957
847.848; 3795.813;  -10.962; 7472.395
848.412; 3591.345;  -14.612; 7437.394
848.976; 3598.464;  -11.492; 7674.592
849.540; 3883.494;   -9.172; 7836.011
850.104; 4083.059;  -11.232; 7913.669
850.668; 4005.983;  -15.182; 7694.508
851.232; 3879.526;  -15.332; 7756.887
851.796; 3830.071;  -13.703; 7926.545
852.359; 3899.522;  -11.113; 7827.844
852.923; 3995.231;  -11.843; 7641.163
853.487; 3964.415;  -11.173; 7342.501
854.050; 3842.198;  -13.443; 7042.820
854.614; 3794.164;  -13.823; 7151.338
855.177; 3719.570;  -16.393; 7105.077
855.741; 3676.697;  -11.693; 6989.675
856.304; 3658.872;  -10.843; 6596.634
856.868; 3551.181;  -13.783; 6356.272
857.431; 3330.265;  -11.953; 6468.571
857.995; 3071.769;  -13.683; 6373.210
858.558; 3039.233;  -11.433; 6324.448
859.121; 3159.068;  -12.493; 6408.327
859.684; 3098.889;  -12.384; 6347.886
860.247; 2777.802;  -14.774; 6321.264
860.810; 2518.569;  -13.154; 6301.903
861.374; 2515.036;  -11.264; 6607.881
861.937; 2588.433;  -15.424; 6408.200
862.500; 2577.254;  -12.854; 6572.639
863.062; 2561.406;  -12.344; 6387.297
863.625; 2559.260;  -13.314; 6190.836
864.188; 2642.173;  -14.724; 5807.254
864.751; 2830.629;  -13.464; 5682.413
865.314; 3179.315;  -11.684; 5547.492
865.876; 3407.318;  -11.104; 5500.150
866.439; 3357.003;  -12.344; 5415.909
867.002; 3172.746;  -13.494; 5501.567
867.564; 2900.173;  -10.935; 5413.946
868.127; 2705.233;  -12.665; 5160.325
868.689; 2667.387;  -14.515; 5133.183
869.252; 2721.840;  -13.425; 5252.382
869.814; 2890.482;  -11.595; 5297.141
870.377; 2996.379;  -12.175; 5390.919
870.939; 2882.588;  -10.265; 5599.898
871.501; 2747.236;  -12.375; 5248.336
872.063; 2663.011;  -14.355; 4854.235
872.626; 2582.310;  -14.435; 4817.074
873.188; 2485.944;  -12.415; 4987.732
873.750; 2506.601;  -14.555; 4868.651
874.312; 2442.391;  -11.185; 4779.330
874.874; 2251.360;  -12.715; 4866.348
875.436; 2160.701;  -13.196; 4718.887
875.998; 2151.902;  -11.426; 4660.005
876.560; 2064.359;   -9.786; 4462.964
877.122; 1997.662;  -12.796; 4145.042
877.683; 1978.145;  -13.226; 4056.481
878.245; 1965.144;  -12.036; 3950.740
878.807; 1962.802;  -11.536; 4058.958
879.369; 1951.309;  -10.806; 3954.677
879.930; 1848.499;  -13.946; 3941.495
880.492; 1698.896;  -11.876; 4067.014
881.053; 1660.302;  -13.216; 3859.633
881.615; 1730.994;  -12.226; 3776.071
882.176; 1789.759;  -12.946; 3734.750
882.738; 1753.438;  -10.736; 3678.489
883.299; 1697.757;  -12.057; 3405.407
883.860; 1661.561;  -12.677; 3351.106
884.422; 1595.368;  -14.097; 3394.044
884.983; 1439.570;  -13.667; 3166.443
885.544; 1230.758;  -10.717; 3189.802
886.105; 1045.343;  -14.357; 3160.360
886.666;  917.632;  -14.287; 3093.059
887.227;  808.045;  -14.297; 2941.957
887.788;  716.357;  -13.137; 2974.836
888.349;  637.881;  -14.637; 2721.214
888.910;  609.155;  -12.247; 2696.493
889.471;  634.634;  -10.577; 2560.172
890.032;  669.070;  -12.937; 2558.190
890.593;  675.847;  -12.487; 2567.669
891.153;  659.448;  -11.898; 2460.307
891.714;  670.795;  -14.278; 2372.046
892.275;  689.166;  -13.308; 2309.505
892.835;  656.043;  -12.058; 2382.543
893.396;  597.421;  -15.268; 2295.502
893.956;  555.323;  -13.278; 2162.420
894.517;  529.325;  -11.968; 2125.439
895.077;  521.167;  -12.798; 2086.978
895.638;  505.086;  -11.908; 2126.316
896.198;  482.839;  -13.288; 1838.275
896.758;  464.554;  -12.198; 1892.813
897.319;  441.987;  -13.048; 1792.232
897.879;  408.312;  -13.718; 1762.751
898.439;  372.612;  -14.138; 1661.149
898.999;  362.876;  -13.659; 1781.468
899.559;  352.847;  -14.699; 1703.347
900.119;  333.690;  -14.339; 1537.525
900.679;  311.730;  -11.789; 1638.384
901.239;  290.827;  -13.629; 1527.902
901.799;  275.426;  -13.679; 1456.441
902.359;  263.451;  -13.679; 1357.140
902.919;  253.584;  -14.159; 1331.118
903.479;  244.794;  -13.419; 1317.257
904.038;  233.658;  -14.899; 1262.595
904.598;  223.022;  -14.339; 1152.034
905.158;  217.091;  -13.959; 1240.893
905.717;  214.832;  -12.749; 1233.691
906.277;  208.024;  -11.889; 1217.330
906.836;  200.185;  -12.870; 1222.408
907.396;  196.038;  -11.790; 1193.047
907.955;  190.671;  -13.750; 1182.526
908.515;  184.292;  -14.760; 1099.364
909.074;  178.024;  -12.540; 1092.863
909.633;  173.276;  -12.120; 1069.121
910.192;  171.990;  -12.550; 1196.460
910.752;  170.676;  -12.760; 1029.960
911.311;  168.330;  -14.750; 1009.780
911.870;  164.329;  -13.860;  971.460
912.429;  162.857;  -13.480; 1094.080
912.988;  158.838;  -12.370; 1081.060
913.547;  154.281;  -14.670;  940.380
914.106;  152.326;  -12.800;  999.420
914.665;  150.328;  -11.370;  984.020
915.224;  148.577;  -11.430; 1035.760
915.782;  147.316;  -12.260;  922.560
916.341;  148.707;  -12.540; 1049.840
916.900;  146.754;  -12.540;  925.260
917.458;  144.660;  -13.480;  884.220
918.017;  144.020;  -12.470;  942.600
918.576;  142.863;  -13.450;  904.440
919.134;  140.782;  -12.890;  837.980
919.693;  140.055;  -15.480;  893.060
920.251;  138.083;  -14.420;  876.500
920.809;  137.374;  -12.170;  839.580
921.368;  137.380;  -13.650;  885.360
921.926;  137.602;  -12.750;  842.940
922.484;  138.458;  -14.150;  903.360
923.042;  138.611;  -15.100;  880.340
923.601;  142.039;  -10.990;  998.680
924.159;  140.677;  -12.470;  935.560
924.717;  140.139;  -15.640;  841.080
925.275;  141.324;  -12.380;  903.240
925.833;  141.336;  -12.710;  779.320
926.391;  142.555;  -11.200;  938.380
926.949;  141.888;  -16.000;  857.680
927.506;  144.916;  -12.260;  903.500
928.064;  145.476;  -11.300;  877.580
928.622;  145.205;  -13.750;  880.100
929.180;  145.183;  -15.290;  814.180
929.737;  143.008;  -14.500;  808.540
930.295;  145.425;  -10.630;  928.480
930.853;  147.709;  -14.590;  849.100
931.410;  149.892;  -14.450;  821.120
931.968;  152.997;  -14.390;  940.660
932.525;  153.680;  -13.050;  909.380
933.082;  152.404;  -15.620;  811.440
933.640;  154.777;  -15.650;  925.900
934.197;  157.861;  -13.610;  886.360
934.754;  161.784;  -13.320;  897.780
935.312;  164.641;  -13.370;  863.340
935.869;  167.953;  -12.780; 1012.980
936.426;  166.505;  -14.480;  872.800
936.983;  167.880;  -13.180;  889.020
937.540;  167.685;  -15.710;  838.280
938.097;  170.287;  -14.980;  940.120
938.654;  172.390;  -13.060;  898.860
939.211;  172.836;  -12.760;  952.480
939.768;  171.830;  -16.230;  915.420
940.324;  173.289;  -10.940;  904.200
940.881;  171.679;  -12.570;  878.500
941.438;  171.697;  -13.650; 1021.200
941.995;  170.672;  -13.300;  992.560
942.551;  172.794;  -15.800;  875.620
943.108;  171.848;  -14.180;  937.920
943.664;  171.340;  -13.890;  869.340
944.221;  174.846;  -12.640; 1088.140
944.777;  172.607;  -14.700;  869.680
945.334;  170.628;  -13.010;  884.840
945.890;  172.326;  -13.480;  946.480
946.446;  171.371;  -14.920;  947.020
947.003;  170.296;  -13.860;  964.940
947.559;  171.020;  -12.000; 1063.040
948.115;  170.724;  -10.510; 1026.540
948.671;  170.359;  -12.760;  967.300
949.227;  166.497;  -15.390;  859.560
949.783;  163.084;  -15.570;  858.900
950.339;  162.366;  -12.800;  991.000
950.895;  161.562;  -13.780; 1023.840
951.451;  159.095;  -13.810;  925.280
952.007;  161.825;  -12.390;  998.540
952.563;  162.243;  -11.980;  937.780
953.118;  159.623;  -14.070;  904.940
953.674;  161.755;  -14.140;  935.780
954.230;  166.209;  -12.680;  949.640
954.785;  167.949;  -12.770;  936.640
955.341;  164.621;  -11.450;  998.160
955.897;  156.386;  -15.350;  834.660
956.452;  152.874;  -14.200;  953.840
957.008;  148.349;  -10.820; 1083.640
957.563;  145.646;  -13.200; 1009.540
958.118;  145.664;  -14.460;  877.700
958.674;  146.526;  -13.840;  946.780
959.229;  145.758;  -10.670; 1013.980
959.784;  145.804;  -17.040;  832.400
960.339;  149.053;  -12.970; 1001.280
960.894;  151.671;  -12.700;  963.760
961.449;  155.283;  -13.790;  859.960
962.004;  161.906;  -11.760; 1212.840
962.559;  159.977;  -14.840;  860.140
963.114;  154.369;  -14.530;  742.480
963.669;  152.493;  -12.780;  915.500
964.224;  147.883;  -14.330;  874.340
964.779;  142.169;  -14.380;  828.420
965.334;  137.918;  -12.460; 1017.860
965.888;  134.088;  -13.490;  875.360
966.443;  134.048;  -14.140;  972.380
966.998;  129.868;  -16.240;  819.460
967.552;  129.556;  -12.730;  908.380
968.107;  127.323;  -14.510;  868.300
968.661;  127.543;  -11.850;  922.440
969.216;  125.094;  -14.370;  856.280
969.770;  123.066;  -13.010;  917.200
970.324;  121.766;  -12.460;  923.140
970.879;  122.771;  -11.580;  947.180
971.433;  123.474;  -13.130;  952.720
971.987;  122.956;  -12.360;  895.340
972.541;  120.563;  -14.330;  917.100
973.095;  116.905;  -13.310; 1009.460
973.649;  112.803;  -15.830;  809.480
974.203;  112.483;  -15.830;  829.040
974.757;  115.796;  -13.480;  855.220
975.311;  117.310;  -13.720;  872.600
975.865;  118.327;  -15.780;  881.820
976.419;  117.164;  -14.290;  857.400
976.973;  114.924;  -13.210;  849.620
977.526;  112.379;  -12.300;  949.920
978.080;  107.367;  -14.840;  796.780
978.634;  105.733;  -13.100;  921.320
979.187;  102.372;  -12.300;  905.400
979.741;  101.934;  -12.020; 1018.380
980.294;   99.037;  -14.590;  789.160
980.848;   97.917;  -14.390;  717.220
981.401;   98.380;  -14.280;  816.540
981.955;   98.363;  -11.920;  844.300
982.508;   94.351;  -15.790;  746.340
983.061;   94.805;  -12.070;  915.260
983.615;   92.304;  -13.260;  798.800
984.168;   89.946;  -15.540;  770.080
984.721;   88.984;  -13.230;  880.760
985.274;   85.691;  -11.820;  867.500
985.827;   83.737;  -13.510;  834.220
986.380;   81.454;  -14.840;  721.340
986.933;   83.375;  -13.970;  864.800
987.486;   82.713;  -12.450;  861.920
988.039;   80.992;  -11.170;  863.100
988.591;   77.696;  -13.070;  893.260
989.144;   74.372;  -15.530;  737.260
989.697;   72.872;  -14.300;  758.740
990.250;   72.623;  -13.310;  858.100
990.802;   69.457;  -14.490;  755.860
991.355;   71.373;  -12.980;  974.880
991.907;   68.888;  -13.715;  864.320
992.460;   66.404;  -14.450;  753.760
993.012;   65.167;  -12.590;  749.540
993.565;   63.252;  -15.180;  711.360
994.117;   64.816;  -11.630;  950.780
994.669;   62.444;  -13.760;  701.320
995.221;   61.449;  -12.710;  791.920
995.774;   60.345;  -14.620;  787.580
996.326;   59.057;  -13.150;  740.220
996.878;   60.059;  -12.880;  838.420
997.430;   57.245;  -14.580;  699.860
997.982;   56.453;  -14.030;  750.140
998.534;   57.110;  -12.190;  739.060
999.086;   54.798;  -12.990;  738.220
999.638;   53.560;  -13.180;  661.380
1000.190;   53.206;  -14.970;  699.320
1000.741;   52.875;  -12.200;  742.700
1001.293;   52.905;  -13.400;  686.020
1001.845;   51.102;  -14.490;  676.640
1002.396;   51.073;  -15.280;  743.400
1002.948;   51.265;  -12.380;  737.400
1003.500;   49.717;  -13.260;  723.780
1004.051;   51.878;  -13.730;  907.580
1004.603;   50.705;  -12.300;  791.820
1005.154;   47.224;  -15.330;  608.980
1005.705;   45.837;  -12.800;  723.960
1006.257;   45.318;  -13.900;  707.220
1006.808;   44.297;  -14.430;  685.460
1007.359;   44.345;  -12.010;  763.240
1007.910;   41.709;  -12.690;  646.640
1008.461;   42.303;  -13.610;  732.940
1009.013;   40.170;  -14.990;  588.340
1009.564;   41.946;  -11.860;  793.520
1010.115;   39.342;  -12.640;  597.040
1010.665;   38.901;  -14.570;  602.160
1011.216;   39.737;  -15.190;  667.920
1011.767;   38.781;  -13.470;  697.920
1012.318;   39.868;  -13.760;  736.980
1012.869;   38.007;  -15.950;  679.000
1013.419;   37.771;  -15.880;  603.120
1013.970;   38.064;  -14.540;  666.640
1014.521;   36.976;  -13.220;  620.620
1015.071;   37.314;  -15.020;  670.380
1015.622;   36.595;  -17.510;  635.460
1016.172;   35.809;  -14.130;  596.820
1016.723;   35.928;  -14.220;  614.380
1017.273;   35.625;  -15.370;  604.160
1017.823;   36.045;  -15.290;  650.340
1018.374;   35.919;  -13.420;  611.760
1018.924;   35.797;  -11.740;  716.880
1019.474;   35.784;  -12.250;  718.880
1020.024;   34.569;  -15.850;  657.580
1020.574;   35.110;  -13.280;  726.160
1021.124;   34.595;  -13.560;  673.580
1021.674;   33.173;  -13.790;  559.120
1022.224;   34.367;  -14.610;  708.940
1022.774;   33.151;  -13.100;  668.820
1023.324;   34.823;  -11.470;  753.520
1023.874;   35.689;  -11.990;  875.760
1024.423;   32.697;  -14.550;  613.700
1024.973;   33.260;  -14.440;  610.760
1025.523;   32.088;  -13.250;  620.960
1026.072;   31.476;  -15.200;  606.420
1026.622;   31.385;  -14.590;  675.740
1027.172;   32.385;  -11.080;  715.660
1027.721;   30.891;  -14.010;  601.220
1028.270;   31.421;  -13.690;  663.400
1028.820;   30.912;  -15.380;  638.080
1029.369;   30.922;  -14.980;  612.700
1029.918;   31.618;  -13.100;  649.840
1030.468;   29.713;  -13.680;  564.780
1031.017;   31.230;  -13.770;  634.800
1031.566;   29.095;  -14.100;  608.900
1032.115;   30.378;  -11.770;  694.500
1032.664;   28.829;  -14.940;  596.480
1033.213;   29.967;  -13.370;  735.420
1033.762;   29.988;  -13.660;  635.620
1034.311;   29.201;  -13.650;  677.220
1034.860;   29.254;  -13.820;  691.000
1035.408;   29.356;  -12.860;  722.720
1035.957;   29.612;  -13.060;  719.540
1036.506;   26.918;  -14.510;  530.800
1037.055;   30.033;  -13.470;  844.320
1037.603;   27.789;  -14.800;  664.000
1038.152;   26.711;  -14.190;  534.760
1038.700;   27.575;  -11.810;  585.740
1039.249;   27.369;  -12.850;  681.220
1039.797;   26.641;  -14.610;  633.360
1040.345;   26.922;  -15.220;  705.420
1040.894;   27.041;  -13.480;  625.300
1041.442;   25.853;  -13.310;  632.200
1041.990;   24.833;  -14.510;  559.160
1042.538;   25.507;  -15.700;  536.180
1043.087;   25.690;  -13.910;  570.860
1043.635;   27.009;  -13.620;  670.500
1044.183;   25.829;  -14.230;  586.400
1044.731;   25.577;  -13.730;  576.000
1045.279;   26.026;  -13.970;  674.920
1045.827;   27.072;  -10.750;  892.400
1046.374;   23.794;  -15.230;  515.420
1046.922;   24.191;  -15.390;  590.580
1047.470;   25.892;  -12.320;  691.300
1048.018;   24.547;  -13.230;  647.960
1048.565;   25.264;  -13.390;  708.600
1049.113;   23.417;  -15.030;  557.000
1049.660;   23.355;  -12.540;  629.660
1050.208;   23.537;  -15.040;  675.640
1050.755;   23.026;  -14.680;  606.580
1051.303;   24.380;  -13.610;  686.820
1051.850;   23.228;  -14.340;  635.120
1052.397;   21.811;  -16.330;  473.960
1052.945;   22.210;  -15.710;  617.760
1053.492;   23.028;  -12.320;  741.840
1054.039;   23.923;  -13.730;  720.180
1054.586;   21.718;  -16.140;  557.240
1055.133;   23.399;  -14.020;  693.140
1055.680;   22.896;  -13.430;  646.620
1056.227;   21.090;  -14.570;  542.780
1056.774;   23.739;  -14.400;  794.980
1057.321;   20.603;  -14.230;  523.260
1057.868;   20.755;  -14.220;  651.320
1058.415;   20.979;  -14.060;  651.980
1058.961;   21.611;  -14.640;  678.940
1059.508;   21.080;  -13.970;  643.820
1060.055;   20.763;  -15.100;  581.780
1060.601;   21.491;  -12.180;  624.300
1061.148;   20.545;  -15.010;  616.820
1061.694;   19.252;  -14.750;  592.580
1062.241;   20.673;  -14.130;  596.320
1062.787;   20.655;  -14.770;  663.140
1063.334;   22.081;  -13.130;  808.560
1063.880;   20.807;  -14.420;  668.360
1064.426;   20.289;  -13.130;  706.820
1064.972;   19.252;  -13.960;  601.340
1065.518;   17.802;  -13.680;  566.640
1066.065;   19.420;  -15.720;  624.460
1066.611;   18.788;  -13.970;  598.800
1067.157;   18.721;  -13.920;  641.860
1067.703;   19.017;  -14.760;  668.480
1068.249;   18.736;  -14.490;  605.220
1068.794;   18.872;  -14.740;  626.880
1069.340;   17.627;  -13.220;  578.960
1069.886;   18.773;  -14.930;  590.700
1070.432;   17.224;  -14.700;  541.720
1070.977;   17.718;  -14.470;  601.080
1071.523;   18.059;  -14.330;  573.060
1072.068;   18.002;  -14.960;  582.000
1072.614;   17.438;  -16.220;  527.760
1073.160;   17.679;  -11.280;  687.040
1073.705;   16.373;  -15.990;  572.520
1074.250;   16.576;  -16.550;  559.900
1074.796;   17.560;  -14.600;  655.160
1075.341;   17.821;  -13.440;  664.100
1075.886;   16.714;  -14.450;  594.240
1076.431;   17.346;  -13.160;  649.880
1076.976;   16.317;  -14.710;  639.220
1077.521;   15.921;  -14.000;  583.080
1078.067;   15.891;  -14.470;  579.400
1078.612;   15.802;  -14.530;  661.620
1079.156;   15.365;  -15.660;  601.540
1079.701;   15.945;  -16.120;  693.260
1080.246;   16.758;  -12.960;  696.300
1080.791;   15.519;  -13.700;  625.020
1081.336;   15.450;  -15.540;  659.320
1081.880;   15.461;  -14.640;  649.680
1082.425;   14.854;  -14.220;  573.480
1082.970;   16.549;  -11.890;  717.040
1083.514;   15.228;  -13.820;  597.000
1084.059;   13.800;  -14.280;  586.720
1084.603;   13.622;  -12.890;  565.840
1085.147;   14.998;  -13.590;  645.220
1085.692;   15.753;  -14.050;  716.800
1086.236;   12.758;  -14.990;  503.140
1086.780;   16.169;  -12.640;  751.440
1087.325;   15.380;  -15.550;  654.620
1087.869;   14.378;  -14.980;  610.700
1088.413;   14.916;  -13.440;  705.040
1088.957;   12.282;  -12.170;  543.400
1089.501;   15.237;  -12.730;  766.640
1090.045;   14.405;  -14.650;  726.480
1090.589;   12.201;  -14.500;  569.920
1091.133;   14.232;  -12.320;  673.340
1091.676;   13.140;  -16.130;  591.940
1092.220;   12.730;  -13.930;  600.920
1092.764;   14.178;  -12.820;  706.960
1093.307;   13.409;  -11.700;  673.780
1093.851;   12.051;  -15.600;  556.540
1094.395;   12.477;  -13.920;  683.140
1094.938;   12.743;  -16.090;  632.520
1095.482;   12.665;  -13.820;  559.800
1096.025;   13.538;  -12.720;  710.880
1096.568;   13.323;  -12.100;  779.280
1097.112;   10.858;  -15.450;  508.180
1097.655;   12.443;  -14.310;  603.000
1098.198;   10.686;  -14.740;  600.180
1098.741;   11.485;  -15.550;  612.860
1099.285;   11.733;  -12.600;  657.300
1099.828;    9.920;  -15.050;  439.400
1100.371;   11.137;  -14.800;  608.160
1100.914;   11.556;  -16.480;  682.660
1101.457;   11.987;  -12.990;  679.900
1101.999;    9.929;  -14.110;  584.680
1102.542;   11.595;  -11.450;  641.440
1103.085;   10.517;  -13.350;  658.500
1103.628;   12.213;  -13.200;  762.060
1104.170;    9.733;  -12.310;  588.280
1104.713;   10.600;  -14.320;  646.700
1105.256;    9.481;  -16.110;  557.440
1105.798;    8.737;  -15.910;  499.980
1106.341;   12.047;  -12.200;  728.900
1106.883;    9.174;  -14.910;  521.340
1107.425;    9.952;  -14.960;  668.180
1107.968;    9.513;  -13.440;  612.380
1108.510;   10.822;  -14.010;  684.960
1109.052;    9.015;  -15.430;  612.620
1109.594;    8.447;  -15.290;  554.440
1110.136;   10.371;  -13.360;  643.220
1110.679;    9.393;  -13.820;  633.080
1111.221;    9.460;  -13.690;  604.460
1111.763;    8.326;  -14.890;  559.220
1112.304;    8.510;  -14.550;  547.140
1112.846;    9.265;  -12.760;  666.240
1113.388;   12.277;  -10.780;  942.180
1113.930;    8.860;  -12.690;  694.200
1114.472;    8.809;  -15.730;  606.540
1115.013;    7.618;  -14.620;  551.280
1115.555;    7.616;  -14.950;  587.100
1116.097;    6.942;  -16.460;  579.480
1116.638;    8.027;  -13.730;  684.600
1117.180;    8.720;  -13.810;  667.740
1117.721;    7.652;  -13.280;  568.580
1118.262;    8.085;  -15.080;  677.960
1118.804;    8.631;  -14.040;  637.340
1119.345;    6.875;  -15.430;  578.400
1119.886;    8.692;  -15.240;  704.040
1120.427;    6.800;  -15.820;  589.020
1120.969;    6.111;  -14.550;  597.920
1121.510;    6.268;  -14.030;  563.060
1122.051;    7.729;  -11.990;  723.580
1122.592;    6.930;  -16.490;  655.420
1123.133;    5.435;  -15.580;  547.940
1123.673;    8.213;  -12.850;  706.480
1124.214;    6.285;  -13.630;  612.460
1124.755;    6.951;  -14.830;  639.460
1125.296;    6.805;  -13.110;  627.320
1125.836;    7.576;  -11.320;  691.500
1126.377;    5.838;  -14.330;  599.660
1126.918;    7.221;  -12.800;  614.980
1127.458;    6.068;  -13.580;  622.220
1127.999;    7.015;  -10.330;  656.980
1128.539;    6.813;  -13.390;  694.240
1129.079;    5.746;  -16.420;  632.720
1129.620;    4.864;  -15.700;  558.100
1130.160;    4.876;  -14.790;  539.480
1130.700;    5.161;  -12.910;  640.840
1131.240;    6.207;  -15.610;  643.700
1131.781;    5.013;  -12.920;  619.680
1132.321;    5.463;  -15.300;  599.120
1132.861;    4.662;  -14.760;  564.200
1133.401;    4.300;  -15.470;  593.940
1133.941;    5.545;  -13.710;  626.280
1134.481;    4.949;  -11.820;  597.580
1135.020;    4.063;  -14.810;  609.160
1135.560;    5.420;  -13.660;  674.940
1136.100;    3.713;  -13.940;  501.160
1136.640;    3.758;  -15.410;  510.480
1137.179;    3.742;  -16.920;  537.960
1137.719;    4.339;  -16.430;  605.400
1138.258;    4.065;  -16.300;  587.360
1138.798;    5.128;  -13.710;  663.780
1139.337;    3.236;  -13.840;  482.840
1139.877;    4.049;  -16.140;  642.360
1140.416;    6.526;  -11.410;  878.060
1140.955;    3.774;  -12.820;  535.380
1141.494;    3.815;  -12.310;  669.280
1142.034;    2.745;  -16.280;  583.520
1142.573;    4.365;  -13.090;  646.280
1143.112;    3.421;  -13.770;  553.480
1143.651;    2.725;  -15.830;  536.480
1144.190;    4.322;  -15.010;  691.640
1144.729;    3.121;  -13.650;  607.420
1145.267;    3.867;  -13.670;  584.900
1145.806;    3.970;  -13.630;  637.040
1146.345;    2.743;  -14.160;  635.020
1146.884;    3.033;  -11.180;  622.500
1147.422;    2.433;  -15.890;  533.060
1147.961;    4.120;  -12.760;  708.460
1148.500;    3.457;  -15.220;  669.720
1149.038;    2.742;  -13.720;  632.500
1149.577;    3.514;  -13.250;  698.640
1150.115;    0.809;  -16.790;  452.280
1150.653;    2.326;  -15.810;  607.340
1151.192;    2.517;  -14.730;  552.920
1151.730;    2.458;  -13.660;  652.560
1152.268;    1.918;  -15.120;  589.520
1152.806;    2.628;  -15.580;  571.180
1153.344;    1.264;  -16.210;  577.640
1153.882;    2.547;  -12.810;  600.060
1154.421;    0.135;  -14.150;  470.620
1154.958;    1.194;  -15.360;  595.240
1155.496;    2.130;  -14.710;  645.280
1156.034;    2.109;  -13.640;  721.880
1156.572;    2.980;  -13.740;  667.060
1157.110;    0.056;  -16.960;  473.940
1157.647;    2.182;  -11.940;  676.960
1158.185;    0.558;  -14.090;  564.320
1158.723;   -0.114;  -13.610;  509.200
1159.260;    2.443;  -14.760;  701.700
1159.798;    2.001;  -13.700;  658.160
1160.335;    1.140;  -13.820;  631.820

