
Integration time [ms]:   3.276
Averaging Nr. [scans]: 1000
Smoothing Nr. [pixels]: 0
Data measured with spectrometer [name]: 7414430SP
Wave   ;Sample   ;Dark     ;Reference
[nm]   ;[counts] ;[counts] ;[counts] 

288.544;  149.978;    7.793;  793.890
289.143;  155.069;    7.462;  681.602
289.742;  154.689;    8.602;  828.814
290.341;  139.308;    1.321;  789.841
290.940;  129.505;   -0.709;  730.702
291.538;  130.515;    0.881;  881.108
292.137;  129.931;    0.122;  792.581
292.736;  133.813;   -1.929;  975.101
293.335;  131.241;   -8.229;  735.086
293.934;  131.836;   -5.279;  781.677
294.532;  129.719;   -1.369; 1031.958
295.131;  115.793;   -7.641;  834.394
295.730;  116.295;   -8.420;  809.588
296.328;  115.514;   -5.611;  783.442
296.927;  115.495;   -5.781;  779.652
297.525;  116.733;   -6.361;  781.236
298.124;  107.274;  -11.382;  654.009
298.722;  110.699;   -7.641;  761.933
299.321;  108.539;   -6.811;  708.597
299.919;  106.346;   -6.991;  751.918
300.518;  104.259;  -10.362;  689.338
301.116;  106.001;   -9.581;  691.381
301.715;  104.410;   -4.891;  730.222
302.313;  104.090;   -8.801;  704.943
302.911;   99.251;   -8.522;  733.830
303.509;  105.124;   -6.171;  925.627
304.108;  102.026;   -7.311;  760.383
304.706;  101.800;   -8.321;  801.664
305.304;   96.258;  -10.222;  796.707
305.902;  101.450;   -6.021;  784.484
306.500;   96.975;   -4.971;  728.200
307.098;   95.663;   -7.061;  746.560
307.696;   93.772;   -8.801;  780.432
308.294;   93.682;   -6.411;  731.359
308.892;   96.208;   -2.901;  759.769
309.490;   91.569;   -5.041;  712.161
310.088;   90.762;   -5.002;  788.444
310.686;   95.055;   -2.041;  821.749
311.284;   90.132;   -2.351;  766.040
311.882;   88.010;   -4.422;  731.225
312.480;   85.608;   -4.192;  697.167
313.078;   86.968;   -1.172;  808.331
313.675;   87.601;   -2.601;  691.600
314.273;   81.958;   -1.312;  797.837
314.871;   82.044;   -3.942;  589.829
315.468;   79.996;   -2.802;  652.090
316.066;   82.897;   -0.701;  694.427
316.664;   75.103;   -4.362;  656.351
317.261;   79.084;   -2.872;  910.128
317.859;   75.073;   -2.022;  768.735
318.456;   75.051;   -0.531;  830.096
319.054;   71.614;   -3.912;  787.828
319.651;   70.373;   -4.752;  759.928
320.249;   69.556;   -2.602;  810.188
320.846;   67.126;   -0.821;  714.286
321.443;   64.209;   -4.642;  832.135
322.041;   61.929;   -5.002;  812.315
322.638;   59.252;   -3.982;  701.456
323.235;   60.400;   -3.411;  665.683
323.833;   57.943;   -7.361;  740.354
324.430;   53.604;   -8.611;  615.900
325.027;   54.665;   -4.061;  876.855
325.624;   53.111;   -4.031;  644.532
326.221;   50.946;   -7.481;  689.717
326.818;   50.098;   -5.281;  818.332
327.415;   54.151;   -7.460;  748.828
328.012;   53.139;   -5.510;  690.585
328.609;   51.676;   -7.880;  731.389
329.206;   50.003;   -8.331;  778.621
329.803;   49.900;   -5.121;  737.841
330.400;   52.210;   -4.510;  704.260
330.997;   53.727;   -6.441;  817.147
331.594;   53.700;   -8.831;  788.185
332.191;   58.051;   -7.621;  728.722
332.787;   60.840;   -4.591;  844.463
333.384;   58.595;   -7.412;  763.093
333.981;   58.118;   -8.293;  815.687
334.578;   61.088;   -7.052;  708.378
335.174;   63.456;   -3.102;  731.469
335.771;   62.857;   -5.943;  836.456
336.367;   59.945;   -7.393;  710.631
336.964;   64.315;   -4.063;  793.266
337.561;   61.286;   -3.813;  731.112
338.157;   58.273;   -4.654;  911.916
338.754;   54.745;   -7.934;  796.589
339.350;   53.198;   -4.414;  722.493
339.946;   55.494;   -4.664;  773.135
340.543;   46.535;   -6.375;  846.136
341.139;   41.954;   -9.815;  720.836
341.735;   39.142;   -4.526;  772.593
342.332;   37.920;   -4.895;  691.472
342.928;   38.697;   -4.295;  795.394
343.524;   33.243;   -5.476;  761.684
344.120;   29.918;   -5.856;  738.562
344.716;   32.098;   -2.155;  723.717
345.313;   30.155;   -6.275;  795.342
345.909;   24.094;   -8.815;  627.336
346.505;   26.289;   -5.305;  740.247
347.101;   26.704;   -2.674;  827.864
347.697;   27.480;   -4.344;  785.398
348.293;   22.158;   -9.975;  627.244
348.889;   23.115;   -5.774;  745.914
349.485;   22.050;   -5.004;  688.205
350.081;   22.707;   -4.704;  772.592
350.676;   18.427;   -6.635;  691.606
351.272;   22.318;   -4.504;  809.530
351.868;   21.040;   -3.914;  780.497
352.464;   19.153;   -9.044;  723.932
353.059;   15.030;   -8.314;  646.017
353.655;   18.987;   -7.024;  777.063
354.251;   19.589;   -5.343;  759.845
354.846;   14.480;   -8.604;  740.646
355.442;   12.394;   -6.945;  753.071
356.038;   13.593;   -7.564;  751.708
356.633;   14.471;   -5.814;  728.594
357.229;   12.301;   -7.364;  724.757
357.824;   10.321;   -8.024;  703.600
358.420;    9.591;   -9.384;  679.726
359.015;    9.910;   -5.104;  695.357
359.610;   11.704;   -6.854;  763.920
360.206;    4.274;  -10.185;  603.240
360.801;    7.832;   -7.054;  646.503
361.396;    9.629;   -5.034;  725.975
361.992;    4.691;   -8.284;  668.220
362.587;    2.742;   -8.625;  670.160
363.182;    4.943;   -7.674;  689.631
363.777;    5.375;   -5.164;  738.242
364.372;    4.920;   -8.604;  737.314
364.967;    1.118;   -9.055;  680.744
365.563;    5.151;   -6.114;  815.567
366.158;    3.461;   -5.814;  685.161
366.753;    3.198;   -7.854;  649.263
367.348;    2.164;   -7.804;  746.056
367.942;    2.122;   -7.954;  697.298
368.537;    1.227;   -4.984;  754.245
369.132;    0.107;   -8.564;  703.428
369.727;   -3.389;   -8.855;  638.079
370.322;   -1.304;   -6.245;  580.186
370.917;   -2.257;   -6.425;  710.646
371.511;   -0.263;   -6.294;  861.834
372.106;   -2.515;   -7.685;  776.964
372.701;   -5.300;   -7.335;  585.988
373.296;   -1.081;   -4.564;  863.135
373.890;   -5.466;  -10.235;  647.840
374.485;   -7.137;   -7.885;  691.199
375.079;   -3.325;   -7.324;  738.685
375.674;   -2.427;   -3.494;  812.970
376.268;   -6.301;   -8.525;  691.759
376.863;  -12.198;  -10.086;  580.327
377.457;   -5.593;   -7.025;  662.490
378.052;   -7.588;   -3.585;  764.884
378.646;   -9.728;   -7.595;  741.167
379.240;   -8.661;   -8.335;  721.176
379.835;   -7.867;   -5.785;  636.978
380.429;   -9.973;   -4.335;  562.557
381.023;  -11.061;   -6.805;  779.205
381.617;  -12.350;   -9.195;  680.106
382.212;   -9.139;   -6.905;  685.303
382.806;   -8.241;   -3.745;  760.690
383.400;  -12.075;   -7.745;  672.281
383.994;  -13.320;   -9.765;  664.870
384.588;   -9.351;   -6.564;  697.701
385.182;   -8.307;   -5.344;  726.624
385.776;   -9.542;   -8.514;  706.875
386.370;  -13.621;   -9.555;  681.968
386.964;  -12.515;   -8.715;  684.155
387.558;  -10.169;   -6.174;  598.360
388.152;  -13.716;   -8.725;  681.959
388.745;  -11.737;   -7.965;  814.707
389.339;   -9.692;   -5.924;  747.642
389.933;   -8.337;   -5.524;  695.370
390.527;  -10.626;   -7.114;  859.029
391.120;  -17.254;  -10.725;  595.318
391.714;  -13.642;   -8.035;  711.633
392.308;   -9.715;   -3.574;  780.253
392.901;  -14.510;   -7.245;  642.460
393.495;  -16.224;   -9.285;  595.414
394.089;  -12.971;   -5.895;  760.452
394.682;  -14.961;   -4.295;  697.188
395.275;  -15.486;   -9.875;  719.927
395.869;  -16.027;   -8.485;  667.314
396.462;  -14.070;   -7.455;  616.609
397.056;  -10.460;   -5.424;  776.621
397.649;  -15.924;   -6.605;  731.575
398.242;  -12.602;   -8.224;  712.645
398.836;  -12.253;   -7.474;  766.408
399.429;  -13.521;   -7.094;  631.041
400.022;  -17.183;   -9.475;  665.902
400.615;  -14.111;   -7.145;  805.609
401.208;  -12.643;   -7.174;  691.451
401.802;  -13.881;   -5.515;  699.329
402.395;  -16.165;   -9.875;  683.502
402.988;  -16.493;   -8.845;  696.627
403.581;  -13.607;   -8.874;  646.878
404.174;  -10.753;   -5.324;  686.568
404.767;  -14.722;   -9.575;  638.583
405.360;  -17.107;  -10.965;  621.445
405.953;  -11.077;   -8.764;  759.034
406.545;  -10.155;   -7.514;  725.342
407.138;  -15.073;  -10.025;  618.350
407.731;  -13.864;  -10.034;  613.303
408.324;   -9.974;   -9.374;  660.554
408.917;  -10.837;   -6.534;  681.864
409.509;  -12.440;   -8.004;  740.396
410.102;  -14.447;   -9.875;  643.948
410.695;   -7.954;   -8.604;  665.758
411.287;   -9.751;   -6.794;  599.821
411.880;  -10.973;   -9.334;  585.421
412.472;  -12.941;  -10.254;  613.092
413.065;  -10.827;   -6.714;  629.408
413.657;   -8.852;   -7.234;  576.678
414.250;   -9.016;  -10.544;  646.681
414.842;  -10.108;   -9.744;  676.353
415.434;   -8.157;   -6.994;  570.463
416.027;   -3.545;   -5.893;  652.196
416.619;   -6.437;   -7.264;  713.400
417.211;   -7.259;  -10.374;  599.352
417.804;   -2.987;   -7.993;  628.499
418.396;   -6.942;   -7.234;  607.643
418.988;   -4.504;   -9.443;  659.238
419.580;   -8.399;  -10.724;  568.276
420.172;   -6.214;  -10.323;  536.196
420.764;   -1.769;   -8.793;  672.482
421.356;   -3.427;  -11.143;  636.898
421.948;   -3.988;   -8.293;  677.661
422.540;    1.763;   -7.893;  680.027
423.132;    0.339;   -7.082;  600.641
423.724;   -3.240;   -8.653;  561.267
424.316;   -0.854;  -10.213;  621.345
424.908;    2.740;   -9.762;  591.517
425.500;    3.410;   -5.572;  647.978
426.092;    3.476;   -8.422;  648.268
426.683;    2.834;   -9.283;  684.836
427.275;    5.635;   -7.852;  641.471
427.867;    6.524;   -5.272;  668.948
428.458;    6.876;   -7.682;  732.344
429.050;    5.691;  -10.612;  680.749
429.642;    8.574;   -9.882;  743.124
430.233;    8.692;   -6.962;  569.356
430.825;   10.515;   -6.842;  724.809
431.416;    7.936;   -9.672;  698.241
432.008;   11.359;   -6.552;  651.723
432.599;   11.193;   -6.891;  656.073
433.190;    8.425;  -10.912;  637.670
433.782;    7.994;  -11.172;  590.395
434.373;   15.180;   -6.061;  884.765
434.964;   13.381;   -8.251;  602.920
435.556;   11.647;   -9.722;  634.537
436.147;   14.559;   -9.082;  758.490
436.738;   14.677;   -8.041;  701.099
437.329;   19.572;   -7.341;  721.723
437.920;   11.912;   -8.162;  666.688
438.511;   12.527;  -11.802;  564.526
439.103;   19.715;  -10.191;  623.998
439.694;   20.617;   -7.601;  681.583
440.285;   21.097;   -8.541;  764.432
440.876;   19.851;   -9.751;  845.738
441.466;   19.874;   -9.401;  575.162
442.057;   24.409;   -7.760;  665.814
442.648;   23.812;   -9.971;  746.255
443.239;   21.408;  -11.001;  620.477
443.830;   26.399;   -7.990;  704.958
444.421;   28.414;   -7.910;  655.474
445.011;   24.639;   -8.131;  693.619
445.602;   24.475;   -7.111;  743.126
446.193;   26.454;  -10.920;  488.117
446.783;   30.634;   -6.500;  640.397
447.374;   25.816;   -8.671;  692.759
447.964;   26.356;  -10.781;  713.770
448.555;   35.195;   -9.650;  822.742
449.145;   31.665;   -8.660;  662.853
449.736;   32.154;   -8.990;  803.179
450.326;   32.769;   -9.500;  713.626
450.917;   36.834;   -8.680;  675.324
451.507;   36.292;   -7.520;  600.661
452.097;   36.776;   -8.590;  746.267
452.688;   38.687;  -11.340;  742.160
453.278;   38.250;  -10.100;  566.840
453.868;   42.341;   -6.019;  793.550
454.458;   39.947;   -9.440;  651.141
455.048;   40.191;  -10.560;  711.783
455.639;   42.235;  -11.799;  567.096
456.229;   45.125;   -6.899;  710.694
456.819;   47.201;   -7.389;  751.158
457.409;   47.338;  -11.119;  773.993
457.999;   50.647;   -9.289;  737.505
458.589;   50.333;   -6.139;  686.606
459.179;   50.078;   -8.729;  717.658
459.769;   48.631;   -9.789;  627.099
460.358;   53.387;  -10.259;  797.262
460.948;   53.045;   -7.299;  689.503
461.538;   54.655;  -10.289;  660.677
462.128;   52.603;  -11.269;  664.934
462.717;   59.610;   -9.368;  710.326
463.307;   62.238;   -7.908;  705.846
463.897;   57.726;   -9.599;  656.942
464.486;   56.887;   -9.769;  837.128
465.076;   62.558;   -8.048;  733.776
465.666;   65.601;   -9.358;  652.900
466.255;   62.418;   -7.919;  785.651
466.845;   61.999;  -11.689;  666.749
467.434;   64.798;   -7.818;  725.873
468.023;   67.005;   -7.678;  658.357
468.613;   63.835;  -10.939;  713.946
469.202;   67.863;  -10.118;  646.507
469.791;   71.959;   -9.108;  737.811
470.381;   73.891;   -6.058;  742.813
470.970;   73.475;  -10.428;  711.099
471.559;   73.274;  -10.268;  733.291
472.148;   76.637;   -8.448;  675.737
472.738;   79.129;   -6.917;  765.466
473.327;   78.592;  -11.978;  637.529
473.916;   78.655;  -11.888;  737.446
474.505;   83.313;   -9.437;  751.703
475.094;   85.747;   -6.747;  806.570
475.683;   84.712;   -9.367;  797.699
476.272;   86.106;  -12.637;  730.632
476.861;   89.158;  -10.027;  706.754
477.449;   94.850;   -8.716;  728.487
478.038;   89.153;   -9.577;  692.513
478.627;   91.093;   -9.718;  714.852
479.216;   96.971;   -8.947;  769.441
479.805;  100.752;   -6.256;  783.375
480.393;   99.350;   -7.937; 1008.945
480.982;   98.925;   -7.717;  874.501
481.571;  105.098;   -9.266;  858.333
482.159;  105.284;   -7.636;  705.386
482.748;  105.281;   -9.667;  821.385
483.336;  110.487;  -10.376;  858.209
483.925;  110.919;   -7.147;  774.373
484.513;  117.102;   -7.996;  758.962
485.102;  113.559;  -10.027;  810.965
485.690;  122.869;  -10.446; 1011.050
486.278;  124.906;   -8.446;  979.329
486.867;  125.074;   -6.356;  809.662
487.455;  126.734;   -9.136;  898.229
488.043;  128.465;  -10.646;  748.361
488.631;  136.498;   -7.456; 1005.079
489.220;  140.078;   -6.636;  908.626
489.808;  140.411;  -11.036;  741.415
490.396;  147.979;  -10.246;  914.645
490.984;  154.438;   -8.556;  830.161
491.572;  162.704;   -5.886;  940.315
492.160;  169.282;   -9.486;  919.081
492.748;  180.531;  -10.976;  884.341
493.336;  202.423;   -8.776; 1019.693
493.924;  227.565;   -5.465;  958.077
494.512;  252.814;   -9.986; 1066.638
495.100;  288.293;  -10.636; 1103.280
495.687;  343.544;  -10.885; 1206.373
496.275;  403.068;   -8.126; 1150.796
496.863;  470.422;  -10.586; 1281.171
497.451;  566.670;  -11.926; 1386.805
498.038;  698.207;  -10.885; 1556.729
498.626;  801.803;   -6.315; 1741.407
499.214;  946.954;   -7.326; 2016.609
499.801; 1143.130;  -11.906; 2220.633
500.389; 1375.183;  -10.466; 2312.494
500.976; 1661.286;   -5.236; 2744.849
501.564; 2084.819;   -8.936; 3148.565
502.151; 2429.220;  -13.176; 3515.999
502.738; 2821.078;  -10.646; 3971.274
503.326; 3218.841;   -9.525; 4403.796
503.913; 3617.309;  -10.856; 5161.749
504.500; 3994.361;  -11.586; 5986.420
505.088; 4351.014;  -10.336; 6381.201
505.675; 4876.047;   -6.355; 6925.547
506.262; 5541.071;   -9.046; 7619.060
506.849; 6266.324;  -10.416; 8733.969
507.436; 6799.703;  -10.305; 9790.121
508.023; 7348.600;   -5.496; 9985.472
508.610; 7580.237;   -7.856;10434.618
509.197; 8195.275;  -10.097;11198.435
509.784; 9514.283;  -10.886;12391.194
510.371;10674.153;   -9.315;13603.713
510.958;11389.110;   -9.936;14426.586
511.545;12067.539;   -9.326;15243.775
512.132;12877.110;  -10.075;15945.876
512.719;13383.652;   -7.796;16340.369
513.305;14500.750;  -10.606;18011.766
513.892;15198.931;  -11.486;19754.971
514.479;16323.757;   -9.126;20967.805
515.066;17803.871;   -6.026;22299.793
515.652;19459.969;   -8.466;22908.660
516.239;20604.197;  -10.886;23798.875
516.825;21348.365;  -11.496;25567.275
517.412;22325.135;   -5.796;28154.959
517.998;23181.143;  -10.506;28344.111
518.585;23205.447;  -10.076;27134.219
519.171;23769.455;   -8.315;27268.576
519.758;25591.266;   -8.596;28964.129
520.344;27631.988;   -8.466;30664.494
520.930;27360.248;  -11.006;32550.605
521.516;28281.523;  -10.495;35422.895
522.103;30112.656;   -5.526;38280.004
522.689;30683.086;   -8.746;37835.117
523.275;30364.342;  -11.376;37288.613
523.861;32100.902;  -11.156;37281.395
524.447;33852.051;   -8.135;37846.949
525.033;33618.277;   -7.896;38321.949
525.619;33789.289;  -12.476;38579.285
526.205;35216.391;   -9.516;40622.875
526.791;38053.363;   -6.926;42258.836
527.377;37935.395;   -8.346;42966.902
527.963;38844.285;   -8.717;42018.949
528.549;38229.328;  -11.016;42476.828
529.135;36957.059;   -8.536;41854.852
529.721;35880.961;   -9.666;41237.711
530.306;35230.801;  -10.066;41259.445
530.892;35069.371;  -11.356;41506.047
531.478;36135.168;   -6.596;43559.613
532.063;39520.477;   -8.836;47695.563
532.649;40838.977;  -10.047;50808.324
533.235;41238.980;   -9.746;51787.500
533.820;41143.238;   -6.566;52145.035
534.406;42466.027;  -10.817;51133.488
534.991;42481.879;   -9.416;49996.805
535.576;40835.508;   -9.036;48882.852
536.162;41620.207;   -6.156;46942.285
536.747;42834.852;  -11.607;45711.746
537.333;45389.813;  -11.787;48510.180
537.918;48335.746;  -12.437;50439.891
538.503;48043.949;   -7.196;50863.711
539.088;44792.695;  -10.556;50906.922
539.673;44561.039;   -8.767;52621.965
540.259;45327.031;  -10.026;52368.094
540.844;42876.984;   -7.416;50879.109
541.429;44544.227;   -9.467;52077.777
542.014;46629.996;   -9.527;52716.695
542.599;45707.820;   -9.946;52363.281
543.184;42636.387;   -7.927;53187.137
543.769;43483.535;   -9.297;54697.605
544.354;43814.621;  -10.127;53913.914
544.938;42490.617;   -9.267;49680.164
545.523;44112.516;   -6.506;47386.277
546.108;46995.641;   -9.787;49151.949
546.693;48810.137;  -11.587;51384.637
547.278;49091.641;  -10.986;51853.254
547.862;46329.160;   -8.206;51173.750
548.447;41978.730;  -10.067;51691.395
549.031;41103.520;   -9.637;52456.703
549.616;45489.828;   -9.926;52714.516
550.201;45514.539;   -6.347;52414.598
550.785;46661.566;   -7.917;52355.059
551.370;45783.727;  -10.867;54589.453
551.954;45163.328;   -9.047;58267.348
552.538;46063.898;   -7.827;59062.176
553.123;44677.859;  -10.287;58115.285
553.707;42370.773;  -12.178;56556.285
554.291;43892.918;   -8.717;56201.668
554.876;47285.039;   -7.457;55335.762
555.460;47458.809;  -10.387;54155.703
556.044;47236.023;   -9.618;53721.484
556.628;44967.723;  -11.567;53731.016
557.212;43796.270;   -8.097;54312.531
557.796;42868.574;  -11.077;53797.773
558.380;43123.480;  -11.108;56145.984
558.964;43076.531;   -9.057;57277.930
559.548;44067.047;   -6.977;56459.641
560.132;42278.906;  -11.457;54434.543
560.716;40614.164;  -11.378;54800.617
561.300;41650.023;   -9.577;57606.945
561.884;42825.844;   -7.127;58972.445
562.467;40811.863;   -7.118;57327.570
563.051;40029.020;  -13.358;54962.434
563.635;41592.367;  -10.178;52594.473
564.219;42249.141;   -7.837;50610.410
564.802;42921.527;  -11.398;49551.180
565.386;42403.480;  -12.788;48370.953
565.969;41693.613;   -9.077;48178.871
566.553;40456.320;   -6.207;49957.305
567.136;41472.395;   -8.568;50369.594
567.720;38577.113;  -11.868;49492.004
568.303;36591.453;   -8.268;50616.352
568.887;36578.137;   -8.698;50727.148
569.470;37196.250;   -6.808;51698.379
570.053;36484.816;  -13.188;52122.078
570.637;34078.445;  -12.037;52536.438
571.220;33771.527;   -8.577;51186.098
571.803;34803.672;   -8.498;51032.762
572.386;36828.094;  -10.498;49609.887
572.969;39242.887;   -9.388;48285.926
573.552;37835.816;   -8.338;47624.285
574.135;36271.348;   -8.518;45498.641
574.718;33754.863;  -13.628;41970.434
575.301;33142.109;  -10.893;41447.137
575.884;32529.357;   -8.158;40923.836
576.467;33678.297;  -10.328;45267.723
577.050;35005.012;  -13.058;48175.543
577.633;35948.293;   -9.458;47729.328
578.216;35175.883;   -8.928;47579.793
578.799;34295.102;   -9.358;47820.996
579.381;33220.320;  -11.388;48115.551
579.964;30947.811;  -11.718;47333.766
580.547;32859.078;   -8.588;46668.969
581.129;33662.219;   -8.859;44466.141
581.712;34608.254;  -10.729;44164.922
582.294;35088.207;  -11.118;46477.855
582.877;35126.984;   -5.218;48244.254
583.459;33434.652;   -8.679;47437.895
584.042;31269.297;  -10.709;46943.219
584.624;30737.006;  -11.669;46792.227
585.206;30086.215;   -8.218;46557.250
585.789;29512.711;  -10.569;45793.773
586.371;29888.639;  -11.859;43836.391
586.953;28194.859;  -10.719;42972.492
587.536;27911.121;   -7.198;42487.211
588.118;30679.701;   -8.720;42086.414
588.700;30517.133;  -10.439;43389.930
589.282;31344.922;   -9.198;43646.039
589.864;33044.129;   -9.199;43438.109
590.446;34551.852;  -11.319;43151.926
591.028;34516.965;  -11.159;42781.867
591.610;33175.719;  -11.779;42839.098
592.192;30418.725;   -7.668;42820.402
592.774;29134.232;  -11.949;40724.277
593.356;28131.486;  -12.129;39874.789
593.937;27085.852;  -10.669;39980.648
594.519;29298.850;   -6.509;42069.633
595.101;31354.373;  -10.849;42976.031
595.683;31337.998;  -11.679;44084.441
596.264;32074.746;   -9.049;43478.797
596.846;32037.031;   -8.849;43803.672
597.427;32036.102;   -9.570;42986.934
598.009;33207.563;  -12.620;42832.219
598.591;33399.414;  -10.039;42580.086
599.172;33089.695;  -10.369;43061.805
599.753;33267.480;   -9.140;41691.469
600.335;34567.410;  -11.430;40692.520
600.916;32759.730;   -9.939;39982.422
601.498;30630.705;   -8.479;40318.617
602.079;29157.398;  -10.920;40670.609
602.660;28794.762;  -11.480;41450.898
603.241;30554.381;  -11.699;41137.738
603.823;29398.016;   -9.579;38868.797
604.404;28373.818;  -10.620;38182.785
604.985;30099.338;  -10.450;38078.047
605.566;30306.213;   -9.129;38056.633
606.147;30243.756;   -7.510;37020.418
606.728;31652.086;  -10.660;37883.359
607.309;30295.531;  -11.740;38748.273
607.890;30277.797;   -9.759;38850.230
608.471;29874.695;   -8.250;37457.918
609.051;29117.926;   -9.240;36066.457
609.632;27845.924;  -12.120;35991.074
610.213;27958.184;   -9.110;37402.641
610.794;28746.305;   -8.030;38383.363
611.374;28785.430;   -8.110;40562.387
611.955;29821.318;  -13.560;38533.727
612.536;31179.859;  -11.400;36951.789
613.116;30574.646;   -8.070;37197.891
613.697;30836.139;  -10.830;38411.125
614.277;29061.184;  -11.641;38673.938
614.858;29777.139;  -13.310;37075.863
615.438;29508.170;   -7.460;35092.906
616.019;27557.080;   -7.601;33666.301
616.599;27693.066;  -12.020;34189.023
617.179;29229.674;  -11.780;36952.047
617.760;30431.813;   -8.570;39582.574
618.340;31177.383;  -11.471;38943.977
618.920;31969.160;  -11.170;37594.156
619.500;31930.943;  -11.071;37866.938
620.080;30949.926;   -7.750;37869.043
620.660;31965.574;  -12.711;36868.617
621.241;33815.789;  -10.211;36352.309
621.821;34466.383;  -10.961;35459.520
622.401;33251.945;   -7.720;35207.414
622.980;32052.934;   -8.981;35980.422
623.560;30594.559;   -9.331;37351.328
624.140;29257.781;   -9.850;34388.582
624.720;24640.119;   -7.451;32368.764
625.300;21360.309;   -9.070;32638.629
625.880;24682.025;  -12.601;34599.035
626.459;28742.293;  -11.751;36831.738
627.039;31537.150;   -9.281;38299.098
627.619;31408.756;   -8.801;38289.574
628.198;29989.080;  -12.071;37220.695
628.778;29058.326;   -9.461;37632.563
629.357;29606.385;   -8.491;38003.012
629.937;29818.807;   -9.721;38402.039
630.516;29352.807;   -9.951;37868.801
631.096;29166.494;  -11.731;35760.410
631.675;31103.076;   -8.572;35225.219
632.254;36221.641;  -11.282;35130.289
632.834;35928.629;  -13.322;35794.570
633.413;34363.953;  -10.301;35788.922
633.992;31957.447;   -8.582;34532.863
634.571;32347.668;   -8.352;33590.113
635.151;34905.375;  -11.912;34943.863
635.730;33606.742;  -10.511;35352.523
636.309;30443.775;   -7.731;35366.605
636.888;27900.590;   -9.952;36165.637
637.467;28107.941;  -11.672;37515.902
638.046;29423.596;   -8.901;39288.695
638.625;32204.178;   -7.912;38279.699
639.204;32163.156;  -10.022;37741.598
639.782;31188.189;  -12.252;38364.551
640.361;27581.484;  -10.041;36740.621
640.940;24888.438;  -11.161;34950.082
641.519;25637.695;   -9.701;34137.398
642.097;28519.205;  -11.271;35654.258
642.676;31159.232;   -8.651;35637.957
643.255;32510.098;   -8.711;36567.074
643.833;31886.111;   -9.581;37809.434
644.412;31880.879;  -13.711;37337.293
644.990;30838.287;  -11.811;37018.531
645.569;30521.320;   -9.411;36518.469
646.147;30099.465;  -10.291;36186.430
646.726;30429.383;  -12.401;36267.688
647.304;31448.879;  -10.411;36647.625
647.882;32552.084;   -9.651;39286.742
648.461;34041.305;   -9.631;39157.703
649.039;32655.480;  -11.881;35412.883
649.617;31696.207;   -9.661;34744.918
650.195;30812.254;   -9.301;35403.098
650.773;29511.316;  -10.511;35053.797
651.352;27337.615;  -11.521;33756.816
651.930;25033.057;  -12.211;31868.773
652.508;23436.359;   -9.171;33121.551
653.086;27187.863;   -9.371;33564.793
653.663;30409.436;  -13.161;34054.668
654.241;28989.166;  -13.031;35693.309
654.819;30149.580;   -9.371;36422.906
655.397;29998.814;  -10.511;38213.484
655.975;29516.438;  -10.371;39507.625
656.553;29280.887;  -10.051;39498.223
657.130;27930.080;  -10.061;40395.480
657.708;27232.023;   -9.561;39242.020
658.286;27376.764;  -11.511;38920.020
658.863;28545.283;  -10.261;40202.898
659.441;31817.580;   -7.531;39677.938
660.018;31957.900;   -9.501;40413.355
660.596;30549.629;  -13.301;39931.414
661.173;31893.307;  -11.211;39604.531
661.750;32410.359;   -9.951;39700.070
662.328;31306.352;   -9.390;39292.809
662.905;30424.404;  -11.330;38235.648
663.482;26430.475;   -9.050;36212.305
664.060;24469.947;   -8.240;35944.945
664.637;27258.684;  -10.050;35170.785
665.214;28562.520;  -11.760;34197.523
665.791;30130.752;  -10.530;34549.520
666.368;29469.986;   -9.690;35118.578
666.945;29881.109;   -9.320;36019.418
667.522;31372.521;  -11.860;36048.438
668.099;31143.500;  -10.770;36243.914
668.676;29768.383;   -6.260;35958.875
669.253;28482.797;   -7.000;37384.730
669.830;28606.889;  -10.190;36779.629
670.407;28598.549;   -9.550;35231.289
670.984;28549.988;   -9.260;35544.270
671.560;29499.297;   -9.280;35466.867
672.137;28917.549;  -11.810;34280.863
672.714;29844.381;  -11.490;34632.863
673.290;31073.143;   -7.740;35135.422
673.867;31037.373;  -10.660;36114.480
674.443;30876.148;  -12.230;36152.859
675.020;28883.168;  -10.450;35327.238
675.596;29746.871;   -9.260;35795.176
676.173;30389.102;  -10.780;35430.355
676.749;29980.158;  -13.690;33549.516
677.326;29753.887;  -11.980;32210.012
677.902;29612.811;   -8.630;32068.871
678.478;29149.479;  -10.730;32583.891
679.054;28242.830;  -10.520;32088.928
679.631;28558.668;  -11.920;30978.848
680.207;29926.494;   -7.490;33160.887
680.783;31429.777;   -9.860;35570.363
681.359;30612.564;  -13.380;36125.184
681.935;30415.191;  -12.480;35240.922
682.511;30419.219;   -7.900;34429.961
683.087;30850.783;   -7.710;34463.680
683.663;29999.572;  -11.480;34648.898
684.239;28552.482;  -14.090;34546.457
684.815;27859.574;   -7.560;35586.375
685.390;27834.279;   -9.910;35821.895
685.966;28338.541;  -11.159;35085.871
686.542;30761.264;  -11.169;34198.230
687.118;33290.969;   -5.959;32847.707
687.693;33964.652;  -10.329;32794.027
688.269;33634.145;  -12.059;33072.367
688.844;31883.279;  -10.909;33141.664
689.420;29943.154;   -8.019;33965.742
689.995;28208.057;   -8.399;34655.523
690.571;26694.941;  -10.949;33576.742
691.146;26608.168;   -9.619;32657.219
691.722;26540.975;   -8.999;32526.979
692.297;26044.188;  -11.589;33014.617
692.872;27298.465;  -11.739;34012.254
693.448;27213.248;  -11.059;34237.434
694.023;26177.170;  -10.139;34142.672
694.598;28009.443;   -9.029;34132.031
695.173;28848.430;  -13.319;34205.250
695.748;27764.248;  -10.169;32882.488
696.323;27635.777;   -8.339;32864.906
696.898;27853.529;   -8.169;33170.004
697.473;28185.873;  -12.309;32432.984
698.048;27604.627;  -10.989;31649.303
698.623;27227.121;   -9.329;30778.141
699.198;28563.916;   -9.849;31140.119
699.773;29998.033;  -12.329;31764.299
700.348;28854.660;  -10.389;31780.816
700.922;28822.049;   -9.269;32046.375
701.497;29965.328;   -9.329;32603.574
702.072;30328.605;  -10.789;34799.871
702.646;28822.719;  -10.839;35793.172
703.221;26541.029;   -9.099;35201.590
703.795;28297.902;  -10.939;34764.527
704.370;28794.672;  -12.859;34307.367
704.944;29012.264;  -11.559;33509.887
705.519;29604.471;   -7.939;31388.584
706.093;30753.344;  -10.499;31340.104
706.668;31250.787;  -11.289;32630.281
707.242;30147.809;  -11.509;32728.779
707.816;28944.713;   -9.639;32947.238
708.390;27449.361;  -11.429;33277.855
708.965;27888.396;  -11.869;33834.336
709.539;27939.029;  -11.689;33709.273
710.113;27954.508;  -10.478;33044.313
710.687;27424.666;  -10.228;31953.992
711.261;25918.307;  -13.698;30505.949
711.835;25721.121;  -13.378;30262.369
712.409;26027.990;   -9.698;31254.447
712.983;28048.117;  -11.898;32754.986
713.557;29387.064;  -15.138;34018.824
714.131;29342.537;  -14.098;34579.625
714.704;28404.414;   -9.958;33890.262
715.278;25863.201;  -10.028;33531.102
715.852;24621.121;  -11.148;33601.660
716.425;25665.361;   -9.068;33515.117
716.999;26803.615;  -10.038;33185.555
717.573;27649.971;   -9.798;33905.996
718.146;28674.479;  -12.378;35199.293
718.720;28868.906;  -11.918;35060.551
719.293;28828.236;   -8.088;34973.230
719.867;31779.225;  -10.888;36394.449
720.440;31641.018;  -11.938;36663.008
721.013;29872.607;  -12.818;35102.426
721.587;28219.223;  -10.298;33985.266
722.160;26939.625;  -10.048;33524.965
722.733;25889.639;  -12.108;32987.043
723.306;26092.568;  -10.818;33066.301
723.880;28235.191;   -8.908;33399.500
724.453;30668.322;   -9.878;33468.297
725.026;30119.477;  -11.188;33816.637
725.599;27217.945;  -11.678;32797.996
726.172;26898.297;   -9.618;33187.434
726.745;27859.420;   -8.258;35136.613
727.318;29069.266;  -12.978;35751.730
727.891;29922.123;  -12.148;35890.430
728.463;29532.891;   -8.968;34822.090
729.036;28087.715;  -10.188;32895.086
729.609;28566.313;  -11.788;31823.225
730.182;25863.629;  -11.788;31445.283
730.754;23541.230;  -10.268;32373.223
731.327;23973.311;   -9.998;33676.820
731.900;24365.553;  -12.228;33417.000
732.472;24951.170;  -13.848;31978.498
733.045;26444.820;   -8.698;30368.777
733.617;26559.934;  -10.607;30574.215
734.190;27000.584;  -11.507;31280.975
734.762;24829.283;  -13.647;31674.412
735.334;22888.998;   -9.767;31247.291
735.907;23186.807;   -9.897;29876.211
736.479;23483.424;  -11.637;29808.488
737.051;23110.457;   -9.567;30233.547
737.623;23616.678;   -8.187;31469.086
738.195;23855.090;  -11.187;31784.225
738.768;25819.727;  -12.337;32120.523
739.340;26909.779;  -12.227;32094.342
739.912;26152.146;  -11.057;31312.680
740.484;24670.965;  -10.207;31946.238
741.056;22958.119;  -10.047;32984.059
741.628;23982.436;  -13.627;33897.715
742.199;26067.053;   -7.177;33213.016
742.771;24908.650;  -10.797;31369.113
743.343;22951.549;  -11.997;31865.473
743.915;21998.250;  -12.867;32388.631
744.487;21902.900;   -7.617;31079.568
745.058;21935.057;   -9.557;30570.107
745.630;22600.545;   -9.877;29970.127
746.201;24028.523;  -14.177;29186.766
746.773;24915.027;   -9.237;28805.723
747.344;24668.375;   -9.847;29591.223
747.916;22719.455;  -11.657;31412.201
748.487;22620.129;  -10.587;32194.898
749.059;23990.543;   -8.707;32533.719
749.630;24784.756;  -10.537;32158.518
750.201;23871.445;  -11.687;30855.395
750.773;22127.797;  -11.647;28622.555
751.344;21724.377;   -7.147;28405.732
751.915;22554.516;   -9.757;28461.551
752.486;22835.930;  -12.427;27842.850
753.057;20941.113;  -12.227;27845.008
753.628;19668.021;  -10.417;27728.107
754.199;20465.246;  -11.767;27381.086
754.770;21525.305;  -11.187;25882.203
755.341;21822.322;  -10.507;25886.184
755.912;22056.607;   -9.387;26050.861
756.483;21627.670;  -10.647;26798.779
757.054;19893.352;  -11.837;27048.238
757.625;18432.109;  -12.716;26294.838
758.195;18129.582;   -9.666;26142.076
758.766;17761.992;   -8.656;26392.234
759.337;18309.158;  -12.856;26334.594
759.907;19732.854;  -13.366;27579.652
760.478;20673.219;   -8.576;28352.770
761.048;20237.232;  -10.526;27325.088
761.619;19241.918;  -11.116;26460.428
762.189;19267.848;  -12.136;26029.826
762.760;20247.219;   -9.456;26430.145
763.330;21477.701;   -7.136;26670.902
763.900;21160.633;  -11.786;26603.021
764.471;18802.834;  -11.546;25542.740
765.041;17393.328;   -8.096;24358.459
765.611;17114.125;   -8.876;23991.297
766.181;17307.639;  -12.196;24470.236
766.751;18491.418;  -11.636;24845.975
767.321;18407.111;  -10.156;24533.633
767.891;16377.579;  -11.766;24916.492
768.461;15699.510;  -14.936;24776.771
769.031;16144.550;  -12.356;24757.988
769.601;17898.188;   -7.526;24181.088
770.171;18085.238;  -10.766;23670.387
770.741;17092.568;  -13.176;22960.045
771.311;16998.209;  -10.616;22917.523
771.880;17646.000;   -9.576;23562.941
772.450;17694.939;  -10.336;24216.500
773.020;17629.086;  -13.516;24140.398
773.589;16738.449;  -13.466;24414.857
774.159;15997.938;   -8.686;23858.717
774.729;15620.430;   -9.476;22942.135
775.298;15290.702;  -13.666;22324.033
775.867;14854.637;  -11.716;21140.313
776.437;15055.102;   -9.906;20838.092
777.006;14838.262;  -12.166;20599.510
777.576;14395.076;  -12.356;20508.809
778.145;14295.215;  -11.646;20732.947
778.714;14392.661;   -8.226;21062.465
779.283;13942.025;   -9.556;20949.664
779.853;13411.026;  -14.116;20508.623
780.422;13798.027;  -11.506;20649.082
780.991;13398.305;   -9.556;21527.520
781.560;12086.535;   -9.095;22632.658
782.129;11852.365;  -12.135;23048.277
782.698;11849.771;  -10.865;23438.555
783.267;11499.032;   -9.335;23267.734
783.836;11408.332;  -11.045;22415.133
784.404;12370.746;  -13.865;20443.152
784.973;13092.995;  -13.095;19699.150
785.542;13190.550;  -11.575;19763.828
786.111;12968.331;   -9.705;20341.408
786.679;12498.127;  -12.105;20207.967
787.248;12236.391;  -12.455;19516.465
787.817;12044.070;  -11.535;18900.363
788.385;11746.149;   -9.765;17879.121
788.954;11234.709;  -14.005;17658.301
789.522;10553.775;  -11.955;17788.879
790.090;10888.014;  -10.135;18118.277
790.659;11513.637;  -10.975;18338.736
791.227;11179.930;  -13.375;18508.615
791.795;11546.152;  -12.375;17898.254
792.364;11849.303;  -10.725;17295.133
792.932;12205.577;   -9.715;16822.051
793.500;12518.065;  -12.675;17040.148
794.068;12712.585;  -13.495;17179.787
794.636;12884.651;  -10.885;16664.246
795.204;12183.217;  -11.045;16524.545
795.772;12135.803;  -13.175;17274.564
796.340;11682.353;  -12.445;17891.002
796.908;11427.752;   -9.735;17648.561
797.476;11303.266;   -9.815;17064.080
798.044;10903.093;  -13.985;16672.777
798.612;10174.649;  -13.115;17023.996
799.180; 9796.729;  -10.185;16561.615
799.747; 9649.153;   -9.055;15962.773
800.315; 9328.340;  -12.385;15296.992
800.883; 9127.511;  -15.035;14801.771
801.450; 9339.291;  -10.365;14534.430
802.018; 9466.118;   -9.855;14173.248
802.585; 9471.540;  -11.905;14029.547
803.153; 9441.902;  -11.585;13836.846
803.720; 9246.832;   -9.095;13567.324
804.287; 8747.905;   -9.135;13360.622
804.855; 8223.292;  -11.604;13681.981
805.422; 8088.734;  -11.794;13536.560
805.989; 8197.091;  -10.734;13355.958
806.556; 8410.362;  -10.444;13747.896
807.124; 8673.460;  -12.764;13987.376
807.691; 8627.771;  -12.964;14038.674
808.258; 8441.973;  -11.134;14120.152
808.825; 8118.111;   -9.854;13860.111
809.392; 8235.953;  -10.504;13268.790
809.959; 7776.286;  -13.054;12680.389
810.526; 7267.515;   -8.294;12427.308
811.093; 7218.052;   -8.394;12030.105
811.659; 7859.584;  -12.304;11653.664
812.226; 8495.495;  -13.944;11637.183
812.793; 8271.484;  -10.484;11611.521
813.360; 7600.352;  -10.144;11885.181
813.926; 7247.925;  -11.684;12770.539
814.493; 7044.020;  -13.644;12677.638
815.060; 6668.599;   -9.724;11974.336
815.626; 6580.246;   -9.854;11594.715
816.193; 6920.932;  -13.254;11579.474
816.759; 6972.574;  -13.204;11666.972
817.325; 6994.337;   -9.434;11325.530
817.892; 7341.820;  -10.134;11105.369
818.458; 7786.249;  -13.474;10843.928
819.024; 7449.003;  -11.854;10714.406
819.591; 7141.042;  -10.244;10469.165
820.157; 6944.486;  -10.704;10235.523
820.723; 6429.837;  -12.324;10847.563
821.289; 6110.746;   -9.444;11040.980
821.855; 6052.237;   -8.374;10357.100
822.421; 6049.891;  -10.234; 9978.918
822.987; 6022.919;  -13.294; 9754.177
823.553; 5604.485;  -10.884;10065.755
824.119; 5333.453;   -8.884;10036.294
824.685; 5456.469;   -6.784;10029.192
825.251; 5612.900;  -12.004;10199.230
825.816; 5581.523;  -11.474; 9820.189
826.382; 5288.085;   -9.174; 9297.248
826.948; 5420.083;   -9.214; 9381.347
827.513; 5845.362;  -10.774; 9450.726
828.079; 5755.609;  -11.924; 9472.444
828.645; 5150.340;  -10.543; 9292.643
829.210; 4935.295;  -10.533; 9065.341
829.776; 4903.011;  -10.753; 9132.620
830.341; 4783.205;  -10.173; 9092.878
830.906; 4920.402;  -10.743; 9078.557
831.472; 5266.305;  -11.113; 8534.535
832.037; 5111.617;  -10.603; 8677.874
832.602; 4608.433;  -13.323; 8628.692
833.167; 4326.292;  -10.823; 8879.031
833.733; 4244.778;  -10.113; 9189.790
834.298; 4365.495;  -13.583; 9052.608
834.863; 4509.439;  -12.703; 8895.087
835.428; 4532.552;  -10.523; 8824.266
835.993; 4390.873;   -6.963; 8845.385
836.558; 4225.611;  -10.763; 8888.563
837.123; 4299.990;   -9.903; 8966.582
837.688; 4556.824;   -9.913; 8617.860
838.253; 4830.771;  -10.283; 8590.699
838.817; 5014.336;  -12.963; 8443.797
839.382; 4933.905;  -14.243; 8799.356
839.947; 4625.721;  -10.733; 8810.595
840.511; 4329.403;   -9.383; 8796.394
841.076; 3953.270;  -12.563; 8347.231
841.641; 4001.288;  -12.953; 8224.330
842.205; 4108.139;   -7.043; 8223.349
842.770; 4128.819;   -8.163; 8622.107
843.334; 4241.373;  -12.503; 8410.386
843.898; 4198.259;  -11.693; 8337.465
844.463; 4191.498;  -10.203; 8506.283
845.027; 3991.854;   -9.533; 8280.962
845.591; 3811.447;  -13.443; 8231.141
846.156; 3829.488;  -13.143; 7969.179
846.720; 3752.775;   -9.433; 7768.278
847.284; 3652.462;  -11.033; 7630.957
847.848; 3516.007;  -10.403; 7472.395
848.412; 3417.970;  -11.553; 7437.394
848.976; 3448.308;   -8.393; 7674.592
849.540; 3356.319;   -8.713; 7836.011
850.104; 3393.726;  -12.463; 7913.669
850.668; 3758.256;  -12.973; 7694.508
851.232; 3941.510;  -10.793; 7756.887
851.796; 3817.113;  -10.662; 7926.545
852.359; 3490.357;  -13.082; 7827.844
852.923; 3295.661;  -12.192; 7641.163
853.487; 3155.097;  -11.912; 7342.501
854.050; 3144.264;  -10.892; 7042.820
854.614; 3278.174;  -13.992; 7151.338
855.177; 3384.013;  -11.732; 7105.077
855.741; 3418.773;   -8.962; 6989.675
856.304; 3310.012;   -9.442; 6596.634
856.868; 3280.784;  -14.192; 6356.272
857.431; 3411.986;  -12.702; 6468.571
857.995; 3554.260;   -9.942; 6373.210
858.558; 3596.085;   -9.112; 6324.448
859.121; 3330.587;  -12.932; 6408.327
859.684; 3142.542;  -13.442; 6347.886
860.247; 3239.302;  -10.632; 6321.264
860.810; 3282.728;  -11.272; 6301.903
861.374; 3038.823;   -9.832; 6607.881
861.937; 2767.778;  -11.762; 6408.200
862.500; 2759.437;   -9.722; 6572.639
863.062; 2903.979;  -10.512; 6387.297
863.625; 3037.941;  -11.232; 6190.836
864.188; 3202.284;  -14.112; 5807.254
864.751; 3294.969;  -11.302; 5682.413
865.314; 3219.990;  -10.112; 5547.492
865.876; 2985.779;  -12.182; 5500.150
866.439; 2934.809;  -10.722; 5415.909
867.002; 2897.504;   -9.252; 5501.567
867.564; 2720.921;   -9.572; 5413.946
868.127; 2514.590;  -13.142; 5160.325
868.689; 2387.559;  -12.902; 5133.183
869.252; 2280.521;   -9.732; 5252.382
869.814; 2173.540;   -9.432; 5297.141
870.377; 2169.083;  -11.552; 5390.919
870.939; 2229.685;   -9.052; 5599.898
871.501; 2304.380;  -10.982; 5248.336
872.063; 2330.018;  -12.292; 4854.235
872.626; 2271.476;  -14.912; 4817.074
873.188; 2255.866;  -13.112; 4987.732
873.750; 2229.383;  -13.442; 4868.651
874.312; 2146.759;   -9.402; 4779.330
874.874; 2066.875;  -11.062; 4866.348
875.436; 1982.013;  -13.931; 4718.887
875.998; 1971.896;   -9.561; 4660.005
876.560; 2001.599;  -11.321; 4462.964
877.122; 1944.883;  -12.221; 4145.042
877.683; 1835.468;  -12.191; 4056.481
878.245; 1749.797;  -12.101; 3950.740
878.807; 1786.375;   -8.971; 4058.958
879.369; 1815.499;  -12.071; 3954.677
879.930; 1724.126;  -14.621; 3941.495
880.492; 1653.418;  -10.311; 4067.014
881.053; 1625.945;  -10.901; 3859.633
881.615; 1533.617;  -14.411; 3776.071
882.176; 1430.815;  -13.761; 3734.750
882.738; 1372.633;   -9.181; 3678.489
883.299; 1345.725;  -11.791; 3405.407
883.860; 1327.468;  -13.121; 3351.106
884.422; 1315.272;  -11.211; 3394.044
884.983; 1275.688;  -10.091; 3166.443
885.544; 1206.440;   -8.461; 3189.802
886.105; 1131.048;  -12.361; 3160.360
886.666; 1064.586;  -14.141; 3093.059
887.227; 1003.060;  -11.361; 2941.957
887.788;  941.309;  -11.401; 2974.836
888.349;  871.335;  -13.791; 2721.214
888.910;  862.238;  -13.191; 2696.493
889.471;  868.081;   -9.881; 2560.172
890.032;  850.664;   -9.881; 2558.190
890.593;  821.433;  -10.371; 2567.669
891.153;  794.782;  -13.301; 2460.307
891.714;  747.809;  -11.431; 2372.046
892.275;  714.133;  -11.291; 2309.505
892.835;  681.377;  -11.471; 2382.543
893.396;  631.495;  -11.541; 2295.502
893.956;  571.291;  -11.181; 2162.420
894.517;  528.000;  -11.741; 2125.439
895.077;  519.579;  -11.671; 2086.978
895.638;  522.144;  -11.311; 2126.316
896.198;  496.284;   -9.831; 1838.275
896.758;  452.788;   -8.421; 1892.813
897.319;  420.531;  -12.351; 1792.232
897.879;  404.209;  -13.511; 1762.751
898.439;  379.820;  -12.001; 1661.149
898.999;  354.892;  -10.180; 1781.468
899.559;  343.482;  -12.030; 1703.347
900.119;  339.421;  -15.710; 1537.525
900.679;  335.414;   -8.900; 1638.384
901.239;  320.826;   -8.340; 1527.902
901.799;  309.627;  -13.910; 1456.441
902.359;  303.584;  -13.460; 1357.140
902.919;  296.819;  -11.490; 1331.118
903.479;  284.282;  -12.110; 1317.257
904.038;  263.368;  -11.720; 1262.595
904.598;  248.592;  -13.610; 1152.034
905.158;  244.176;  -11.040; 1240.893
905.717;  238.810;  -10.900; 1233.691
906.277;  227.328;  -15.080; 1217.330
906.836;  217.876;  -13.380; 1222.408
907.396;  208.828;  -10.780; 1193.047
907.955;  200.572;   -8.500; 1182.526
908.515;  195.753;  -12.760; 1099.364
909.074;  189.466;  -11.900; 1092.863
909.633;  183.688;   -8.950; 1069.121
910.192;  179.451;   -8.770; 1196.460
910.752;  173.624;  -12.390; 1029.960
911.311;  169.044;  -13.680; 1009.780
911.870;  166.941;  -12.370;  971.460
912.429;  167.055;  -10.900; 1094.080
912.988;  166.646;  -11.690; 1081.060
913.547;  163.087;  -13.240;  940.380
914.106;  158.250;  -11.990;  999.420
914.665;  154.646;   -9.990;  984.020
915.224;  152.697;  -12.880; 1035.760
915.782;  153.376;  -12.350;  922.560
916.341;  152.779;   -9.110; 1049.840
916.900;  148.621;   -9.270;  925.260
917.458;  145.766;  -13.240;  884.220
918.017;  146.596;  -13.550;  942.600
918.576;  145.889;  -12.320;  904.440
919.134;  143.816;  -11.490;  837.980
919.693;  142.250;  -13.670;  893.060
920.251;  141.618;  -15.470;  876.500
920.809;  140.056;  -11.290;  839.580
921.368;  138.930;  -10.210;  885.360
921.926;  137.742;  -12.140;  842.940
922.484;  137.598;  -13.080;  903.360
923.042;  136.446;  -11.720;  880.340
923.601;  139.567;   -7.480;  998.680
924.159;  137.854;  -11.570;  935.560
924.717;  135.559;  -13.840;  841.080
925.275;  134.970;  -10.640;  903.240
925.833;  133.886;  -11.540;  779.320
926.391;  134.081;  -12.960;  938.380
926.949;  133.050;  -14.130;  857.680
927.506;  133.752;  -11.750;  903.500
928.064;  133.852;  -10.250;  877.580
928.622;  132.575;  -13.030;  880.100
929.180;  133.058;  -13.400;  814.180
929.737;  133.956;  -10.700;  808.540
930.295;  138.325;  -10.070;  928.480
930.853;  138.520;  -11.960;  849.100
931.410;  140.346;  -13.120;  821.120
931.968;  139.686;  -10.770;  940.660
932.525;  139.081;  -10.680;  909.380
933.082;  139.504;  -13.130;  811.440
933.640;  140.498;  -13.210;  925.900
934.197;  139.088;  -11.060;  886.360
934.754;  140.048;   -9.580;  897.780
935.312;  142.996;  -14.000;  863.340
935.869;  147.475;  -10.710; 1012.980
936.426;  147.928;   -9.860;  872.800
936.983;  148.743;   -9.710;  889.020
937.540;  149.615;  -13.990;  838.280
938.097;  148.798;  -14.040;  940.120
938.654;  148.990;  -10.310;  898.860
939.211;  149.840;  -10.560;  952.480
939.768;  154.720;  -13.900;  915.420
940.324;  158.219;  -14.760;  904.200
940.881;  159.705;  -10.370;  878.500
941.438;  161.434;   -8.260; 1021.200
941.995;  157.178;  -12.540;  992.560
942.551;  153.590;  -14.670;  875.620
943.108;  153.514;  -10.450;  937.920
943.664;  155.528;  -10.750;  869.340
944.221;  159.067;  -11.550; 1088.140
944.777;  158.139;  -14.770;  869.680
945.334;  156.802;  -12.820;  884.840
945.890;  158.234;  -10.130;  946.480
946.446;  159.433;  -13.470;  947.020
947.003;  161.344;  -12.120;  964.940
947.559;  164.102;   -9.980; 1063.040
948.115;  163.969;   -9.080; 1026.540
948.671;  162.618;  -10.830;  967.300
949.227;  160.079;  -12.440;  859.560
949.783;  156.536;  -12.910;  858.900
950.339;  159.046;  -10.270;  991.000
950.895;  158.803;  -13.630; 1023.840
951.451;  159.021;  -15.100;  925.280
952.007;  157.902;  -11.330;  998.540
952.563;  157.279;  -10.580;  937.780
953.118;  155.371;  -13.440;  904.940
953.674;  155.372;  -12.710;  935.780
954.230;  155.315;  -10.350;  949.640
954.785;  152.577;   -9.190;  936.640
955.341;  150.700;  -11.200;  998.160
955.897;  149.384;  -16.560;  834.660
956.452;  151.567;  -12.570;  953.840
957.008;  151.163;   -7.970; 1083.640
957.563;  149.026;  -11.940; 1009.540
958.118;  142.447;  -13.450;  877.700
958.674;  144.116;  -12.030;  946.780
959.229;  145.274;   -9.410; 1013.980
959.784;  143.532;  -12.000;  832.400
960.339;  141.878;  -14.780; 1001.280
960.894;  138.494;   -9.860;  963.760
961.449;  134.681;   -9.970;  859.960
962.004;  134.303;  -10.900; 1212.840
962.559;  129.540;  -13.150;  860.140
963.114;  127.060;  -13.740;  742.480
963.669;  126.549;   -9.820;  915.500
964.224;  124.608;  -13.890;  874.340
964.779;  123.766;  -12.600;  828.420
965.334;  124.536;  -10.950; 1017.860
965.888;  123.856;  -11.170;  875.360
966.443;  127.350;  -12.540;  972.380
966.998;  127.944;  -15.780;  819.460
967.552;  127.782;   -9.760;  908.380
968.107;  123.407;   -9.060;  868.300
968.661;  123.896;  -11.950;  922.440
969.216;  125.057;  -12.800;  856.280
969.770;  124.994;  -11.210;  917.200
970.324;  124.266;  -11.610;  923.140
970.879;  120.785;  -11.370;  947.180
971.433;  118.202;  -12.540;  952.720
971.987;  112.215;  -11.320;  895.340
972.541;  109.692;  -10.720;  917.100
973.095;  108.612;   -9.680; 1009.460
973.649;  107.643;  -11.440;  809.480
974.203;  106.533;  -11.210;  829.040
974.757;  105.608;  -10.240;  855.220
975.311;  105.481;  -13.720;  872.600
975.865;  106.114;  -13.770;  881.820
976.419;  103.512;  -11.690;  857.400
976.973;  101.556;   -9.510;  849.620
977.526;   97.977;  -12.620;  949.920
978.080;   89.340;  -12.010;  796.780
978.634;   83.068;  -10.170;  921.320
979.187;   76.732;   -9.020;  905.400
979.741;   76.346;   -9.820; 1018.380
980.294;   75.447;  -14.870;  789.160
980.848;   74.712;  -12.380;  717.220
981.401;   77.853;  -10.350;  816.540
981.955;   79.389;  -13.720;  844.300
982.508;   80.368;  -11.490;  746.340
983.061;   81.986;  -10.000;  915.260
983.615;   79.836;  -11.480;  798.800
984.168;   77.177;  -13.220;  770.080
984.721;   77.967;  -13.960;  880.760
985.274;   77.968;  -10.870;  867.500
985.827;   77.070;   -9.790;  834.220
986.380;   74.923;  -13.120;  721.340
986.933;   75.692;  -12.450;  864.800
987.486;   74.312;  -10.210;  861.920
988.039;   73.649;   -8.430;  863.100
988.591;   72.030;  -10.520;  893.260
989.144;   70.061;  -14.860;  737.260
989.697;   69.587;  -13.080;  758.740
990.250;   69.904;  -10.150;  858.100
990.802;   68.550;  -13.430;  755.860
991.355;   69.745;  -12.750;  974.880
991.907;   67.776;  -12.040;  864.320
992.460;   65.807;  -11.330;  753.760
993.012;   65.640;  -13.610;  749.540
993.565;   63.921;  -13.460;  711.360
994.117;   65.008;   -9.360;  950.780
994.669;   60.964;  -11.300;  701.320
995.221;   58.679;  -13.540;  791.920
995.774;   58.401;  -13.430;  787.580
996.326;   57.255;  -12.520;  740.220
996.878;   57.191;  -10.950;  838.420
997.430;   55.720;  -14.300;  699.860
997.982;   54.731;  -13.760;  750.140
998.534;   54.902;  -11.530;  739.060
999.086;   53.526;  -10.310;  738.220
999.638;   52.746;  -12.530;  661.380
1000.190;   51.418;  -11.840;  699.320
1000.741;   51.534;  -10.260;  742.700
1001.293;   50.911;   -8.860;  686.020
1001.845;   48.814;  -13.700;  676.640
1002.396;   49.890;  -12.100;  743.400
1002.948;   49.255;  -12.760;  737.400
1003.500;   46.948;  -10.380;  723.780
1004.051;   48.082;  -11.900;  907.580
1004.603;   47.261;  -12.250;  791.820
1005.154;   44.229;  -13.210;  608.980
1005.705;   42.449;  -10.950;  723.960
1006.257;   41.353;  -13.880;  707.220
1006.808;   41.892;  -12.840;  685.460
1007.359;   40.834;  -10.570;  763.240
1007.910;   39.979;   -9.620;  646.640
1008.461;   38.793;  -13.630;  732.940
1009.013;   39.040;  -17.200;  588.340
1009.564;   39.955;  -10.200;  793.520
1010.115;   36.944;  -12.570;  597.040
1010.665;   37.269;  -15.150;  602.160
1011.216;   37.652;  -14.480;  667.920
1011.767;   36.919;  -11.340;  697.920
1012.318;   36.470;   -9.780;  736.980
1012.869;   35.034;  -12.380;  679.000
1013.419;   35.691;  -15.560;  603.120
1013.970;   35.874;  -11.010;  666.640
1014.521;   34.572;  -11.610;  620.620
1015.071;   35.308;  -13.450;  670.380
1015.622;   34.072;  -13.870;  635.460
1016.172;   33.594;  -11.610;  596.820
1016.723;   33.626;  -12.120;  614.380
1017.273;   33.347;  -13.620;  604.160
1017.823;   33.487;  -14.140;  650.340
1018.374;   33.024;  -12.800;  611.760
1018.924;   32.831;  -12.340;  716.880
1019.474;   32.847;  -11.410;  718.880
1020.024;   31.450;  -14.770;  657.580
1020.574;   33.017;   -9.780;  726.160
1021.124;   32.752;   -8.560;  673.580
1021.674;   31.124;  -15.190;  559.120
1022.224;   32.765;  -13.530;  708.940
1022.774;   32.225;  -13.280;  668.820
1023.324;   32.547;  -10.690;  753.520
1023.874;   33.443;  -10.240;  875.760
1024.423;   31.005;  -12.540;  613.700
1024.973;   30.642;  -10.010;  610.760
1025.523;   30.430;  -10.550;  620.960
1026.072;   29.770;  -13.560;  606.420
1026.622;   29.230;  -15.120;  675.740
1027.172;   30.743;  -11.260;  715.660
1027.721;   29.574;  -11.410;  601.220
1028.270;   29.262;  -13.530;  663.400
1028.820;   29.272;  -13.680;  638.080
1029.369;   29.367;  -13.520;  612.700
1029.918;   29.143;  -10.980;  649.840
1030.468;   28.524;  -13.530;  564.780
1031.017;   28.964;  -13.170;  634.800
1031.566;   27.922;  -12.200;  608.900
1032.115;   28.534;   -9.960;  694.500
1032.664;   27.180;  -13.210;  596.480
1033.213;   28.667;  -12.500;  735.420
1033.762;   28.130;  -11.910;  635.620
1034.311;   27.476;   -9.640;  677.220
1034.860;   26.989;  -13.310;  691.000
1035.408;   27.615;  -11.830;  722.720
1035.957;   27.718;  -12.000;  719.540
1036.506;   25.758;  -11.690;  530.800
1037.055;   28.247;  -10.990;  844.320
1037.603;   26.937;  -15.120;  664.000
1038.152;   24.923;  -12.450;  534.760
1038.700;   25.102;  -10.560;  585.740
1039.249;   25.021;  -11.080;  681.220
1039.797;   25.772;  -12.540;  633.360
1040.345;   25.466;  -11.920;  705.420
1040.894;   24.917;  -11.410;  625.300
1041.442;   24.957;  -14.320;  632.200
1041.990;   24.209;  -16.240;  559.160
1042.538;   23.772;  -11.680;  536.180
1043.087;   24.009;  -10.760;  570.860
1043.635;   24.667;  -11.850;  670.500
1044.183;   24.078;  -15.480;  586.400
1044.731;   23.164;  -11.770;  576.000
1045.279;   22.427;  -13.090;  674.920
1045.827;   25.094;  -12.440;  892.400
1046.374;   22.664;  -13.840;  515.420
1046.922;   21.870;  -13.220;  590.580
1047.470;   24.167;  -10.230;  691.300
1048.018;   22.734;  -14.590;  647.960
1048.565;   24.503;  -12.050;  708.600
1049.113;   21.584;  -11.650;  557.000
1049.660;   22.559;  -10.510;  629.660
1050.208;   22.511;  -13.310;  675.640
1050.755;   20.909;  -15.900;  606.580
1051.303;   22.956;  -11.430;  686.820
1051.850;   21.383;   -8.480;  635.120
1052.397;   19.574;  -15.010;  473.960
1052.945;   20.400;  -13.960;  617.760
1053.492;   22.125;  -13.150;  741.840
1054.039;   22.371;   -9.630;  720.180
1054.586;   20.511;  -13.680;  557.240
1055.133;   21.672;  -14.570;  693.140
1055.680;   20.900;  -13.820;  646.620
1056.227;   19.998;  -11.730;  542.780
1056.774;   21.261;  -12.480;  794.980
1057.321;   19.842;  -13.930;  523.260
1057.868;   20.406;  -11.690;  651.320
1058.415;   20.312;   -9.520;  651.980
1058.961;   20.433;  -13.160;  678.940
1059.508;   19.893;  -12.920;  643.820
1060.055;   20.284;  -11.920;  581.780
1060.601;   20.253;  -11.500;  624.300
1061.148;   18.987;  -14.330;  616.820
1061.694;   18.403;  -16.870;  592.580
1062.241;   19.204;  -10.330;  596.320
1062.787;   18.621;  -10.620;  663.140
1063.334;   21.157;  -10.110;  808.560
1063.880;   19.136;  -13.400;  668.360
1064.426;   18.885;  -10.680;  706.820
1064.972;   17.496;   -9.920;  601.340
1065.518;   16.396;  -10.980;  566.640
1066.065;   18.379;  -14.890;  624.460
1066.611;   17.215;  -12.870;  598.800
1067.157;   18.449;  -12.950;  641.860
1067.703;   18.205;  -13.540;  668.480
1068.249;   17.877;  -13.540;  605.220
1068.794;   17.633;  -12.600;  626.880
1069.340;   16.262;  -10.620;  578.960
1069.886;   17.280;  -12.830;  590.700
1070.432;   16.681;  -14.870;  541.720
1070.977;   16.777;  -11.980;  601.080
1071.523;   16.177;   -8.200;  573.060
1072.068;   16.460;  -12.330;  582.000
1072.614;   15.998;  -16.370;  527.760
1073.160;   17.360;  -11.100;  687.040
1073.705;   15.431;  -10.480;  572.520
1074.250;   16.087;  -14.520;  559.900
1074.796;   17.012;  -11.460;  655.160
1075.341;   16.570;  -11.950;  664.100
1075.886;   16.432;  -11.460;  594.240
1076.431;   15.236;  -13.770;  649.880
1076.976;   14.861;  -12.680;  639.220
1077.521;   15.526;  -13.170;  583.080
1078.067;   14.384;  -10.860;  579.400
1078.612;   15.025;  -13.920;  661.620
1079.156;   15.007;  -13.880;  601.540
1079.701;   15.062;  -13.120;  693.260
1080.246;   15.264;   -9.940;  696.300
1080.791;   14.888;  -14.740;  625.020
1081.336;   15.281;  -13.750;  659.320
1081.880;   15.405;  -13.400;  649.680
1082.425;   13.304;  -12.220;  573.480
1082.970;   15.391;  -11.610;  717.040
1083.514;   13.925;  -13.580;  597.000
1084.059;   13.643;  -12.810;  586.720
1084.603;   13.323;  -12.320;  565.840
1085.147;   13.065;  -13.190;  645.220
1085.692;   14.463;  -12.480;  716.800
1086.236;   13.091;  -13.020;  503.140
1086.780;   14.044;   -9.190;  751.440
1087.325;   13.455;  -12.480;  654.620
1087.869;   13.155;  -12.450;  610.700
1088.413;   13.448;  -12.240;  705.040
1088.957;   11.575;   -9.020;  543.400
1089.501;   13.868;  -10.320;  766.640
1090.045;   12.668;  -12.720;  726.480
1090.589;   11.600;  -13.690;  569.920
1091.133;   12.771;  -10.020;  673.340
1091.676;   12.266;  -12.330;  591.940
1092.220;   11.867;  -14.970;  600.920
1092.764;   12.739;  -12.430;  706.960
1093.307;   12.431;   -9.800;  673.780
1093.851;   10.495;  -14.970;  556.540
1094.395;   11.654;  -15.310;  683.140
1094.938;   11.652;  -10.370;  632.520
1095.482;   11.976;  -11.050;  559.800
1096.025;   11.979;  -11.840;  710.880
1096.568;   12.502;  -12.840;  779.280
1097.112;    9.794;  -14.700;  508.180
1097.655;   11.782;   -8.720;  603.000
1098.198;   10.190;  -13.610;  600.180
1098.741;   10.243;  -13.350;  612.860
1099.285;   11.372;  -11.230;  657.300
1099.828;    8.882;  -11.840;  439.400
1100.371;   10.200;  -10.840;  608.160
1100.914;   11.076;  -14.190;  682.660
1101.457;   10.559;  -11.240;  679.900
1101.999;    9.040;  -11.270;  584.680
1102.542;   10.251;  -11.480;  641.440
1103.085;   10.183;  -11.750;  658.500
1103.628;   10.408;  -11.400;  762.060
1104.170;    9.531;  -10.490;  588.280
1104.713;    9.902;  -10.600;  646.700
1105.256;    9.225;  -14.360;  557.440
1105.798;    8.524;  -13.210;  499.980
1106.341;   10.393;  -10.270;  728.900
1106.883;    8.863;  -12.200;  521.340
1107.425;    8.979;  -13.110;  668.180
1107.968;    9.197;  -12.840;  612.380
1108.510;    9.430;   -6.480;  684.960
1109.052;    7.442;  -13.940;  612.620
1109.594;    7.987;  -13.690;  554.440
1110.136;    9.420;  -11.880;  643.220
1110.679;    7.417;   -9.500;  633.080
1111.221;    8.410;  -14.160;  604.460
1111.763;    7.416;  -13.980;  559.220
1112.304;    8.265;  -13.880;  547.140
1112.846;    8.318;  -12.210;  666.240
1113.388;   10.321;  -11.390;  942.180
1113.930;    8.202;  -14.540;  694.200
1114.472;    7.631;  -12.640;  606.540
1115.013;    5.832;  -11.620;  551.280
1115.555;    5.994;  -13.640;  587.100
1116.097;    6.010;  -15.380;  579.480
1116.638;    7.395;  -12.640;  684.600
1117.180;    7.299;   -9.850;  667.740
1117.721;    7.319;  -13.690;  568.580
1118.262;    7.801;  -12.680;  677.960
1118.804;    7.746;  -12.530;  637.340
1119.345;    5.473;  -11.690;  578.400
1119.886;    7.516;  -13.380;  704.040
1120.427;    5.887;  -14.070;  589.020
1120.969;    6.277;  -13.500;  597.920
1121.510;    5.672;  -11.480;  563.060
1122.051;    5.952;  -12.830;  723.580
1122.592;    5.383;  -14.290;  655.420
1123.133;    4.873;  -12.400;  547.940
1123.673;    6.970;  -10.130;  706.480
1124.214;    5.674;  -12.930;  612.460
1124.755;    6.088;  -14.380;  639.460
1125.296;    5.907;  -14.000;  627.320
1125.836;    6.207;  -10.070;  691.500
1126.377;    4.739;  -12.640;  599.660
1126.918;    5.843;  -12.960;  614.980
1127.458;    5.112;  -13.350;  622.220
1127.999;    5.233;  -10.750;  656.980
1128.539;    5.319;  -12.350;  694.240
1129.079;    5.275;  -14.860;  632.720
1129.620;    4.167;  -13.840;  558.100
1130.160;    4.356;  -12.330;  539.480
1130.700;    5.115;  -14.530;  640.840
1131.240;    5.810;  -12.530;  643.700
1131.781;    4.007;  -14.450;  619.680
1132.321;    4.307;   -9.790;  599.120
1132.861;    3.506;  -14.860;  564.200
1133.401;    3.248;  -14.290;  593.940
1133.941;    4.345;  -11.750;  626.280
1134.481;    3.854;   -9.920;  597.580
1135.020;    3.401;  -12.290;  609.160
1135.560;    4.932;  -11.650;  674.940
1136.100;    3.127;  -16.270;  501.160
1136.640;    2.889;  -10.890;  510.480
1137.179;    3.561;  -14.180;  537.960
1137.719;    3.349;  -16.250;  605.400
1138.258;    3.947;  -14.230;  587.360
1138.798;    3.504;   -9.090;  663.780
1139.337;    2.187;  -15.130;  482.840
1139.877;    3.674;  -13.680;  642.360
1140.416;    5.156;  -11.320;  878.060
1140.955;    2.351;  -10.860;  535.380
1141.494;    3.002;  -12.920;  669.280
1142.034;    2.133;  -13.930;  583.520
1142.573;    3.690;  -11.440;  646.280
1143.112;    2.447;  -12.000;  553.480
1143.651;    2.641;  -13.670;  536.480
1144.190;    3.398;  -12.730;  691.640
1144.729;    2.678;  -14.560;  607.420
1145.267;    2.367;  -11.830;  584.900
1145.806;    3.322;  -12.230;  637.040
1146.345;    2.068;  -14.130;  635.020
1146.884;    1.769;  -11.590;  622.500
1147.422;    1.145;  -12.550;  533.060
1147.961;    2.741;  -11.180;  708.460
1148.500;    2.048;  -11.510;  669.720
1149.038;    2.961;  -11.640;  632.500
1149.577;    2.528;  -10.130;  698.640
1150.115;   -0.030;  -13.970;  452.280
1150.653;    2.277;  -14.520;  607.340
1151.192;    2.686;  -12.810;  552.920
1151.730;    1.845;   -9.100;  652.560
1152.268;    0.702;  -12.220;  589.520
1152.806;    1.576;  -14.140;  571.180
1153.344;    0.646;  -12.350;  577.640
1153.882;    0.831;   -8.980;  600.060
1154.421;   -0.739;  -15.190;  470.620
1154.958;    1.011;  -15.210;  595.240
1155.496;    1.994;  -12.850;  645.280
1156.034;    1.848;   -9.940;  721.880
1156.572;    2.541;  -13.570;  667.060
1157.110;   -0.338;  -14.590;  473.940
1157.647;    1.480;  -13.030;  676.960
1158.185;    0.300;  -12.140;  564.320
1158.723;    0.036;  -14.390;  509.200
1159.260;    0.713;  -14.090;  701.700
1159.798;    0.639;  -11.920;  658.160
1160.335;    0.977;  -11.110;  631.820

