
Integration time [ms]:   3.276
Averaging Nr. [scans]: 1000
Smoothing Nr. [pixels]: 0
Data measured with spectrometer [name]: 7414430SP
Wave   ;Sample   ;Dark     ;Reference
[nm]   ;[counts] ;[counts] ;[counts] 

288.544;  151.195;    7.793;  793.890
289.143;  155.142;    7.462;  681.602
289.742;  155.367;    8.602;  828.814
290.341;  140.924;    1.321;  789.841
290.940;  129.992;   -0.709;  730.702
291.538;  131.003;    0.881;  881.108
292.137;  130.843;    0.122;  792.581
292.736;  135.595;   -1.929;  975.101
293.335;  132.039;   -8.229;  735.086
293.934;  131.646;   -5.279;  781.677
294.532;  130.285;   -1.369; 1031.958
295.131;  116.546;   -7.641;  834.394
295.730;  116.958;   -8.420;  809.588
296.328;  115.043;   -5.611;  783.442
296.927;  116.512;   -5.781;  779.652
297.525;  116.856;   -6.361;  781.236
298.124;  107.968;  -11.382;  654.009
298.722;  111.419;   -7.641;  761.933
299.321;  109.460;   -6.811;  708.597
299.919;  106.991;   -6.991;  751.918
300.518;  105.224;  -10.362;  689.338
301.116;  106.343;   -9.581;  691.381
301.715;  105.406;   -4.891;  730.222
302.313;  104.862;   -8.801;  704.943
302.911;  101.344;   -8.522;  733.830
303.509;  105.941;   -6.171;  925.627
304.108;  103.232;   -7.311;  760.383
304.706;  102.673;   -8.321;  801.664
305.304;   97.446;  -10.222;  796.707
305.902;  101.794;   -6.021;  784.484
306.500;   97.424;   -4.971;  728.200
307.098;   96.541;   -7.061;  746.560
307.696;   95.424;   -8.801;  780.432
308.294;   94.801;   -6.411;  731.359
308.892;   96.965;   -2.901;  759.769
309.490;   93.865;   -5.041;  712.161
310.088;   91.366;   -5.002;  788.444
310.686;   96.185;   -2.041;  821.749
311.284;   91.458;   -2.351;  766.040
311.882;   88.968;   -4.422;  731.225
312.480;   86.007;   -4.192;  697.167
313.078;   87.041;   -1.172;  808.331
313.675;   86.990;   -2.601;  691.600
314.273;   83.096;   -1.312;  797.837
314.871;   83.288;   -3.942;  589.829
315.468;   80.381;   -2.802;  652.090
316.066;   83.677;   -0.701;  694.427
316.664;   76.640;   -4.362;  656.351
317.261;   80.184;   -2.872;  910.128
317.859;   74.934;   -2.022;  768.735
318.456;   75.529;   -0.531;  830.096
319.054;   72.088;   -3.912;  787.828
319.651;   71.042;   -4.752;  759.928
320.249;   70.198;   -2.602;  810.188
320.846;   67.718;   -0.821;  714.286
321.443;   65.085;   -4.642;  832.135
322.041;   62.582;   -5.002;  812.315
322.638;   59.436;   -3.982;  701.456
323.235;   60.850;   -3.411;  665.683
323.833;   58.460;   -7.361;  740.354
324.430;   54.605;   -8.611;  615.900
325.027;   54.964;   -4.061;  876.855
325.624;   54.038;   -4.031;  644.532
326.221;   51.796;   -7.481;  689.717
326.818;   51.256;   -5.281;  818.332
327.415;   54.168;   -7.460;  748.828
328.012;   53.133;   -5.510;  690.585
328.609;   52.581;   -7.880;  731.389
329.206;   49.997;   -8.331;  778.621
329.803;   50.758;   -5.121;  737.841
330.400;   52.601;   -4.510;  704.260
330.997;   55.098;   -6.441;  817.147
331.594;   53.312;   -8.831;  788.185
332.191;   58.046;   -7.621;  728.722
332.787;   61.509;   -4.591;  844.463
333.384;   59.577;   -7.412;  763.093
333.981;   59.554;   -8.293;  815.687
334.578;   61.271;   -7.052;  708.378
335.174;   63.430;   -3.102;  731.469
335.771;   63.171;   -5.943;  836.456
336.367;   60.413;   -7.393;  710.631
336.964;   64.287;   -4.063;  793.266
337.561;   61.766;   -3.813;  731.112
338.157;   57.633;   -4.654;  911.916
338.754;   55.584;   -7.934;  796.589
339.350;   53.694;   -4.414;  722.493
339.946;   55.427;   -4.664;  773.135
340.543;   47.485;   -6.375;  846.136
341.139;   41.837;   -9.815;  720.836
341.735;   40.043;   -4.526;  772.593
342.332;   37.824;   -4.895;  691.472
342.928;   38.264;   -4.295;  795.394
343.524;   32.773;   -5.476;  761.684
344.120;   28.930;   -5.856;  738.562
344.716;   31.894;   -2.155;  723.717
345.313;   30.702;   -6.275;  795.342
345.909;   25.526;   -8.815;  627.336
346.505;   27.022;   -5.305;  740.247
347.101;   26.701;   -2.674;  827.864
347.697;   27.919;   -4.344;  785.398
348.293;   22.393;   -9.975;  627.244
348.889;   22.964;   -5.774;  745.914
349.485;   22.469;   -5.004;  688.205
350.081;   23.035;   -4.704;  772.592
350.676;   18.122;   -6.635;  691.606
351.272;   23.178;   -4.504;  809.530
351.868;   22.200;   -3.914;  780.497
352.464;   19.299;   -9.044;  723.932
353.059;   15.660;   -8.314;  646.017
353.655;   18.408;   -7.024;  777.063
354.251;   19.519;   -5.343;  759.845
354.846;   14.597;   -8.604;  740.646
355.442;   12.421;   -6.945;  753.071
356.038;   14.097;   -7.564;  751.708
356.633;   14.678;   -5.814;  728.594
357.229;   12.578;   -7.364;  724.757
357.824;   10.448;   -8.024;  703.600
358.420;    9.704;   -9.384;  679.726
359.015;   10.506;   -5.104;  695.357
359.610;   10.434;   -6.854;  763.920
360.206;    5.821;  -10.185;  603.240
360.801;    8.534;   -7.054;  646.503
361.396;   10.282;   -5.034;  725.975
361.992;    5.649;   -8.284;  668.220
362.587;    3.334;   -8.625;  670.160
363.182;    4.842;   -7.674;  689.631
363.777;    5.692;   -5.164;  738.242
364.372;    5.185;   -8.604;  737.314
364.967;    1.538;   -9.055;  680.744
365.563;    5.866;   -6.114;  815.567
366.158;    2.956;   -5.814;  685.161
366.753;    3.672;   -7.854;  649.263
367.348;    1.874;   -7.804;  746.056
367.942;    1.332;   -7.954;  697.298
368.537;    1.170;   -4.984;  754.245
369.132;    1.485;   -8.564;  703.428
369.727;   -2.617;   -8.855;  638.079
370.322;   -1.422;   -6.245;  580.186
370.917;   -1.937;   -6.425;  710.646
371.511;    1.155;   -6.294;  861.834
372.106;   -2.473;   -7.685;  776.964
372.701;   -6.008;   -7.335;  585.988
373.296;   -0.280;   -4.564;  863.135
373.890;   -5.324;  -10.235;  647.840
374.485;   -7.482;   -7.885;  691.199
375.079;   -3.580;   -7.324;  738.685
375.674;   -2.466;   -3.494;  812.970
376.268;   -6.916;   -8.525;  691.759
376.863;  -11.279;  -10.086;  580.327
377.457;   -5.595;   -7.025;  662.490
378.052;   -8.057;   -3.585;  764.884
378.646;   -8.137;   -7.595;  741.167
379.240;   -8.377;   -8.335;  721.176
379.835;   -7.769;   -5.785;  636.978
380.429;   -9.786;   -4.335;  562.557
381.023;  -10.024;   -6.805;  779.205
381.617;  -11.882;   -9.195;  680.106
382.212;   -9.060;   -6.905;  685.303
382.806;   -7.925;   -3.745;  760.690
383.400;  -12.222;   -7.745;  672.281
383.994;  -12.261;   -9.765;  664.870
384.588;   -9.083;   -6.564;  697.701
385.182;   -8.396;   -5.344;  726.624
385.776;   -9.212;   -8.514;  706.875
386.370;  -12.329;   -9.555;  681.968
386.964;  -12.379;   -8.715;  684.155
387.558;   -9.430;   -6.174;  598.360
388.152;  -13.672;   -8.725;  681.959
388.745;  -11.283;   -7.965;  814.707
389.339;  -10.079;   -5.924;  747.642
389.933;   -8.703;   -5.524;  695.370
390.527;   -9.994;   -7.114;  859.029
391.120;  -16.587;  -10.725;  595.318
391.714;  -13.465;   -8.035;  711.633
392.308;  -10.531;   -3.574;  780.253
392.901;  -13.791;   -7.245;  642.460
393.495;  -15.373;   -9.285;  595.414
394.089;  -13.466;   -5.895;  760.452
394.682;  -14.210;   -4.295;  697.188
395.275;  -14.516;   -9.875;  719.927
395.869;  -15.765;   -8.485;  667.314
396.462;  -14.072;   -7.455;  616.609
397.056;  -10.445;   -5.424;  776.621
397.649;  -14.634;   -6.605;  731.575
398.242;  -12.398;   -8.224;  712.645
398.836;  -11.320;   -7.474;  766.408
399.429;  -12.724;   -7.094;  631.041
400.022;  -16.417;   -9.475;  665.902
400.615;  -13.050;   -7.145;  805.609
401.208;  -11.561;   -7.174;  691.451
401.802;  -14.246;   -5.515;  699.329
402.395;  -16.218;   -9.875;  683.502
402.988;  -16.169;   -8.845;  696.627
403.581;  -13.089;   -8.874;  646.878
404.174;  -11.034;   -5.324;  686.568
404.767;  -13.406;   -9.575;  638.583
405.360;  -15.951;  -10.965;  621.445
405.953;  -11.539;   -8.764;  759.034
406.545;  -10.691;   -7.514;  725.342
407.138;  -14.740;  -10.025;  618.350
407.731;  -13.350;  -10.034;  613.303
408.324;   -9.224;   -9.374;  660.554
408.917;  -10.503;   -6.534;  681.864
409.509;  -11.579;   -8.004;  740.396
410.102;  -14.595;   -9.875;  643.948
410.695;   -8.759;   -8.604;  665.758
411.287;   -9.477;   -6.794;  599.821
411.880;  -10.717;   -9.334;  585.421
412.472;  -13.462;  -10.254;  613.092
413.065;  -10.792;   -6.714;  629.408
413.657;   -9.050;   -7.234;  576.678
414.250;   -8.043;  -10.544;  646.681
414.842;  -10.323;   -9.744;  676.353
415.434;   -7.712;   -6.994;  570.463
416.027;   -4.477;   -5.893;  652.196
416.619;   -5.617;   -7.264;  713.400
417.211;   -6.329;  -10.374;  599.352
417.804;   -3.803;   -7.993;  628.499
418.396;   -6.908;   -7.234;  607.643
418.988;   -5.087;   -9.443;  659.238
419.580;   -7.666;  -10.724;  568.276
420.172;   -5.963;  -10.323;  536.196
420.764;   -1.816;   -8.793;  672.482
421.356;   -2.937;  -11.143;  636.898
421.948;   -3.033;   -8.293;  677.661
422.540;    1.194;   -7.893;  680.027
423.132;    0.774;   -7.082;  600.641
423.724;   -2.615;   -8.653;  561.267
424.316;   -0.044;  -10.213;  621.345
424.908;    2.803;   -9.762;  591.517
425.500;    3.014;   -5.572;  647.978
426.092;    3.130;   -8.422;  648.268
426.683;    2.997;   -9.283;  684.836
427.275;    6.007;   -7.852;  641.471
427.867;    6.893;   -5.272;  668.948
428.458;    7.530;   -7.682;  732.344
429.050;    6.317;  -10.612;  680.749
429.642;    8.697;   -9.882;  743.124
430.233;    9.304;   -6.962;  569.356
430.825;    9.743;   -6.842;  724.809
431.416;    7.701;   -9.672;  698.241
432.008;   10.534;   -6.552;  651.723
432.599;   12.087;   -6.891;  656.073
433.190;    8.533;  -10.912;  637.670
433.782;    8.204;  -11.172;  590.395
434.373;   15.222;   -6.061;  884.765
434.964;   14.385;   -8.251;  602.920
435.556;   11.628;   -9.722;  634.537
436.147;   15.548;   -9.082;  758.490
436.738;   14.689;   -8.041;  701.099
437.329;   19.948;   -7.341;  721.723
437.920;   12.866;   -8.162;  666.688
438.511;   13.123;  -11.802;  564.526
439.103;   19.967;  -10.191;  623.998
439.694;   20.626;   -7.601;  681.583
440.285;   22.322;   -8.541;  764.432
440.876;   20.347;   -9.751;  845.738
441.466;   19.199;   -9.401;  575.162
442.057;   24.307;   -7.760;  665.814
442.648;   23.207;   -9.971;  746.255
443.239;   21.717;  -11.001;  620.477
443.830;   26.693;   -7.990;  704.958
444.421;   28.678;   -7.910;  655.474
445.011;   25.260;   -8.131;  693.619
445.602;   24.987;   -7.111;  743.126
446.193;   26.453;  -10.920;  488.117
446.783;   30.375;   -6.500;  640.397
447.374;   26.229;   -8.671;  692.759
447.964;   27.637;  -10.781;  713.770
448.555;   35.639;   -9.650;  822.742
449.145;   32.566;   -8.660;  662.853
449.736;   32.401;   -8.990;  803.179
450.326;   32.878;   -9.500;  713.626
450.917;   37.844;   -8.680;  675.324
451.507;   36.575;   -7.520;  600.661
452.097;   38.585;   -8.590;  746.267
452.688;   38.858;  -11.340;  742.160
453.278;   38.406;  -10.100;  566.840
453.868;   42.297;   -6.019;  793.550
454.458;   40.280;   -9.440;  651.141
455.048;   41.152;  -10.560;  711.783
455.639;   42.439;  -11.799;  567.096
456.229;   45.285;   -6.899;  710.694
456.819;   48.307;   -7.389;  751.158
457.409;   48.069;  -11.119;  773.993
457.999;   51.038;   -9.289;  737.505
458.589;   50.536;   -6.139;  686.606
459.179;   50.964;   -8.729;  717.658
459.769;   48.877;   -9.789;  627.099
460.358;   53.874;  -10.259;  797.262
460.948;   53.641;   -7.299;  689.503
461.538;   55.573;  -10.289;  660.677
462.128;   53.194;  -11.269;  664.934
462.717;   60.316;   -9.368;  710.326
463.307;   62.354;   -7.908;  705.846
463.897;   58.331;   -9.599;  656.942
464.486;   58.165;   -9.769;  837.128
465.076;   62.795;   -8.048;  733.776
465.666;   66.290;   -9.358;  652.900
466.255;   63.615;   -7.919;  785.651
466.845;   62.552;  -11.689;  666.749
467.434;   65.562;   -7.818;  725.873
468.023;   66.887;   -7.678;  658.357
468.613;   63.834;  -10.939;  713.946
469.202;   68.396;  -10.118;  646.507
469.791;   71.506;   -9.108;  737.811
470.381;   73.973;   -6.058;  742.813
470.970;   74.654;  -10.428;  711.099
471.559;   74.767;  -10.268;  733.291
472.148;   76.598;   -8.448;  675.737
472.738;   79.807;   -6.917;  765.466
473.327;   79.113;  -11.978;  637.529
473.916;   78.863;  -11.888;  737.446
474.505;   83.332;   -9.437;  751.703
475.094;   85.840;   -6.747;  806.570
475.683;   86.335;   -9.367;  797.699
476.272;   87.154;  -12.637;  730.632
476.861;   89.635;  -10.027;  706.754
477.449;   95.018;   -8.716;  728.487
478.038;   89.826;   -9.577;  692.513
478.627;   90.667;   -9.718;  714.852
479.216;   97.358;   -8.947;  769.441
479.805;  100.752;   -6.256;  783.375
480.393;  100.367;   -7.937; 1008.945
480.982;  100.585;   -7.717;  874.501
481.571;  105.840;   -9.266;  858.333
482.159;  106.030;   -7.636;  705.386
482.748;  106.121;   -9.667;  821.385
483.336;  111.069;  -10.376;  858.209
483.925;  111.404;   -7.147;  774.373
484.513;  117.992;   -7.996;  758.962
485.102;  114.833;  -10.027;  810.965
485.690;  123.829;  -10.446; 1011.050
486.278;  126.048;   -8.446;  979.329
486.867;  126.549;   -6.356;  809.662
487.455;  128.112;   -9.136;  898.229
488.043;  130.274;  -10.646;  748.361
488.631;  137.215;   -7.456; 1005.079
489.220;  141.190;   -6.636;  908.626
489.808;  141.697;  -11.036;  741.415
490.396;  149.266;  -10.246;  914.645
490.984;  155.748;   -8.556;  830.161
491.572;  164.301;   -5.886;  940.315
492.160;  169.869;   -9.486;  919.081
492.748;  182.559;  -10.976;  884.341
493.336;  204.710;   -8.776; 1019.693
493.924;  229.713;   -5.465;  958.077
494.512;  256.644;   -9.986; 1066.638
495.100;  292.227;  -10.636; 1103.280
495.687;  347.195;  -10.885; 1206.373
496.275;  408.303;   -8.126; 1150.796
496.863;  477.765;  -10.586; 1281.171
497.451;  574.594;  -11.926; 1386.805
498.038;  705.742;  -10.885; 1556.729
498.626;  812.050;   -6.315; 1741.407
499.214;  962.425;   -7.326; 2016.609
499.801; 1159.439;  -11.906; 2220.633
500.389; 1389.620;  -10.466; 2312.494
500.976; 1681.301;   -5.236; 2744.849
501.564; 2106.148;   -8.936; 3148.565
502.151; 2455.077;  -13.176; 3515.999
502.738; 2862.107;  -10.646; 3971.274
503.326; 3269.326;   -9.525; 4403.796
503.913; 3677.531;  -10.856; 5161.749
504.500; 4051.766;  -11.586; 5986.420
505.088; 4425.180;  -10.336; 6381.201
505.675; 4956.807;   -6.355; 6925.547
506.262; 5634.019;   -9.046; 7619.060
506.849; 6361.804;  -10.416; 8733.969
507.436; 6884.658;  -10.305; 9790.121
508.023; 7443.439;   -5.496; 9985.472
508.610; 7667.291;   -7.856;10434.618
509.197; 8284.905;  -10.097;11198.435
509.784; 9609.646;  -10.886;12391.194
510.371;10760.084;   -9.315;13603.713
510.958;11502.133;   -9.936;14426.586
511.545;12183.202;   -9.326;15243.775
512.132;13007.036;  -10.075;15945.876
512.719;13492.736;   -7.796;16340.369
513.305;14584.995;  -10.606;18011.766
513.892;15323.764;  -11.486;19754.971
514.479;16472.697;   -9.126;20967.805
515.066;17965.994;   -6.026;22299.793
515.652;19627.785;   -8.466;22908.660
516.239;20788.246;  -10.886;23798.875
516.825;21510.297;  -11.496;25567.275
517.412;22474.996;   -5.796;28154.959
517.998;23291.914;  -10.506;28344.111
518.585;23274.836;  -10.076;27134.219
519.171;23798.838;   -8.315;27268.576
519.758;25625.727;   -8.596;28964.129
520.344;27673.943;   -8.466;30664.494
520.930;27364.404;  -11.006;32550.605
521.516;28272.992;  -10.495;35422.895
522.103;30083.943;   -5.526;38280.004
522.689;30600.811;   -8.746;37835.117
523.275;30251.584;  -11.376;37288.613
523.861;31940.885;  -11.156;37281.395
524.447;33599.789;   -8.135;37846.949
525.033;33287.754;   -7.896;38321.949
525.619;33477.336;  -12.476;38579.285
526.205;34806.992;   -9.516;40622.875
526.791;37427.715;   -6.926;42258.836
527.377;37121.176;   -8.346;42966.902
527.963;37855.703;   -8.717;42018.949
528.549;37105.320;  -11.016;42476.828
529.135;35697.859;   -8.536;41854.852
529.721;34443.484;   -9.666;41237.711
530.306;33272.832;  -10.066;41259.445
530.892;32054.547;  -11.356;41506.047
531.478;31633.951;   -6.596;43559.613
532.063;34388.449;   -8.836;47695.563
532.649;36714.211;  -10.047;50808.324
533.235;37973.590;   -9.746;51787.500
533.820;37543.648;   -6.566;52145.035
534.406;36988.922;  -10.817;51133.488
534.991;34345.656;   -9.416;49996.805
535.576;31007.576;   -9.036;48882.852
536.162;32268.328;   -6.156;46942.285
536.747;37178.965;  -11.607;45711.746
537.333;43879.070;  -11.787;48510.180
537.918;49465.078;  -12.437;50439.891
538.503;50162.828;   -7.196;50863.711
539.088;47037.422;  -10.556;50906.922
539.673;46958.824;   -8.767;52621.965
540.259;47790.484;  -10.026;52368.094
540.844;45022.695;   -7.416;50879.109
541.429;46559.332;   -9.467;52077.777
542.014;48663.570;   -9.527;52716.695
542.599;47712.207;   -9.946;52363.281
543.184;44473.617;   -7.927;53187.137
543.769;45218.320;   -9.297;54697.605
544.354;45481.648;  -10.127;53913.914
544.938;44181.355;   -9.267;49680.164
545.523;45842.281;   -6.506;47386.277
546.108;48642.859;   -9.787;49151.949
546.693;50485.242;  -11.587;51384.637
547.278;50813.918;  -10.986;51853.254
547.862;47864.691;   -8.206;51173.750
548.447;43283.141;  -10.067;51691.395
549.031;42487.805;   -9.637;52456.703
549.616;47033.934;   -9.926;52714.516
550.201;46946.746;   -6.347;52414.598
550.785;48126.422;   -7.917;52355.059
551.370;47299.516;  -10.867;54589.453
551.954;46676.137;   -9.047;58267.348
552.538;47614.512;   -7.827;59062.176
553.123;46199.770;  -10.287;58115.285
553.707;43865.746;  -12.178;56556.285
554.291;45472.266;   -8.717;56201.668
554.876;48854.918;   -7.457;55335.762
555.460;48898.840;  -10.387;54155.703
556.044;48700.797;   -9.618;53721.484
556.628;46420.223;  -11.567;53731.016
557.212;45156.508;   -8.097;54312.531
557.796;44132.457;  -11.077;53797.773
558.380;44365.348;  -11.108;56145.984
558.964;44382.691;   -9.057;57277.930
559.548;45423.984;   -6.977;56459.641
560.132;43563.207;  -11.457;54434.543
560.716;41834.789;  -11.378;54800.617
561.300;42939.129;   -9.577;57606.945
561.884;44147.941;   -7.127;58972.445
562.467;42002.301;   -7.118;57327.570
563.051;41147.051;  -13.358;54962.434
563.635;42789.102;  -10.178;52594.473
564.219;43562.207;   -7.837;50610.410
564.802;44210.059;  -11.398;49551.180
565.386;43570.059;  -12.788;48370.953
565.969;42827.684;   -9.077;48178.871
566.553;41685.102;   -6.207;49957.305
567.136;42717.469;   -8.568;50369.594
567.720;39681.582;  -11.868;49492.004
568.303;37765.449;   -8.268;50616.352
568.887;37842.559;   -8.698;50727.148
569.470;38406.309;   -6.808;51698.379
570.053;37564.684;  -13.188;52122.078
570.637;35030.957;  -12.037;52536.438
571.220;34722.402;   -8.577;51186.098
571.803;35810.262;   -8.498;51032.762
572.386;37873.016;  -10.498;49609.887
572.969;40273.027;   -9.388;48285.926
573.552;38851.344;   -8.338;47624.285
574.135;37364.266;   -8.518;45498.641
574.718;34830.605;  -13.628;41970.434
575.301;34166.059;  -10.893;41447.137
575.884;33501.508;   -8.158;40923.836
576.467;34779.215;  -10.328;45267.723
577.050;36179.648;  -13.058;48175.543
577.633;37100.746;   -9.458;47729.328
578.216;36335.547;   -8.928;47579.793
578.799;35506.285;   -9.358;47820.996
579.381;34477.957;  -11.388;48115.551
579.964;32279.271;  -11.718;47333.766
580.547;34509.070;   -8.588;46668.969
581.129;35521.809;   -8.859;44466.141
581.712;36438.645;  -10.729;44164.922
582.294;36824.746;  -11.118;46477.855
582.877;36775.484;   -5.218;48244.254
583.459;35029.930;   -8.679;47437.895
584.042;32943.242;  -10.709;46943.219
584.624;32725.301;  -11.669;46792.227
585.206;32558.666;   -8.218;46557.250
585.789;32916.918;  -10.569;45793.773
586.371;35190.586;  -11.859;43836.391
586.953;35961.867;  -10.719;42972.492
587.536;36855.277;   -7.198;42487.211
588.118;37387.383;   -8.720;42086.414
588.700;33213.422;  -10.439;43389.930
589.282;32136.875;   -9.198;43646.039
589.864;33326.289;   -9.199;43438.109
590.446;34732.766;  -11.319;43151.926
591.028;34642.566;  -11.159;42781.867
591.610;33272.844;  -11.779;42839.098
592.192;30510.617;   -7.668;42820.402
592.774;29212.939;  -11.949;40724.277
593.356;28256.117;  -12.129;39874.789
593.937;27261.072;  -10.669;39980.648
594.519;29520.844;   -6.509;42069.633
595.101;31592.219;  -10.849;42976.031
595.683;31591.408;  -11.679;44084.441
596.264;32354.875;   -9.049;43478.797
596.846;32256.893;   -8.849;43803.672
597.427;32236.465;   -9.570;42986.934
598.009;33456.449;  -12.620;42832.219
598.591;33629.250;  -10.039;42580.086
599.172;33279.617;  -10.369;43061.805
599.753;33447.250;   -9.140;41691.469
600.335;34781.023;  -11.430;40692.520
600.916;33045.766;   -9.939;39982.422
601.498;30934.549;   -8.479;40318.617
602.079;29439.316;  -10.920;40670.609
602.660;29070.135;  -11.480;41450.898
603.241;30764.275;  -11.699;41137.738
603.823;29560.385;   -9.579;38868.797
604.404;28578.465;  -10.620;38182.785
604.985;30364.178;  -10.450;38078.047
605.566;30602.988;   -9.129;38056.633
606.147;30547.875;   -7.510;37020.418
606.728;31920.826;  -10.660;37883.359
607.309;30475.473;  -11.740;38748.273
607.890;30444.338;   -9.759;38850.230
608.471;30095.465;   -8.250;37457.918
609.051;29330.076;   -9.240;36066.457
609.632;28068.131;  -12.120;35991.074
610.213;28231.082;   -9.110;37402.641
610.794;29008.371;   -8.030;38383.363
611.374;29096.166;   -8.110;40562.387
611.955;30122.068;  -13.560;38533.727
612.536;31457.162;  -11.400;36951.789
613.116;30826.662;   -8.070;37197.891
613.697;31110.096;  -10.830;38411.125
614.277;29354.648;  -11.641;38673.938
614.858;30131.322;  -13.310;37075.863
615.438;29843.760;   -7.460;35092.906
616.019;27811.838;   -7.601;33666.301
616.599;27925.465;  -12.020;34189.023
617.179;29451.693;  -11.780;36952.047
617.760;30583.137;   -8.570;39582.574
618.340;31257.936;  -11.471;38943.977
618.920;32073.248;  -11.170;37594.156
619.500;32168.701;  -11.071;37866.938
620.080;31192.414;   -7.750;37869.043
620.660;32208.842;  -12.711;36868.617
621.241;34055.152;  -10.211;36352.309
621.821;34725.512;  -10.961;35459.520
622.401;33455.902;   -7.720;35207.414
622.980;32197.891;   -8.981;35980.422
623.560;30759.584;   -9.331;37351.328
624.140;29476.900;   -9.850;34388.582
624.720;24813.223;   -7.451;32368.764
625.300;21499.361;   -9.070;32638.629
625.880;24796.125;  -12.601;34599.035
626.459;28888.871;  -11.751;36831.738
627.039;31699.309;   -9.281;38299.098
627.619;31522.066;   -8.801;38289.574
628.198;30091.287;  -12.071;37220.695
628.778;29148.010;   -9.461;37632.563
629.357;29706.063;   -8.491;38003.012
629.937;30074.320;   -9.721;38402.039
630.516;29688.930;   -9.951;37868.801
631.096;29461.357;  -11.731;35760.410
631.675;31363.039;   -8.572;35225.219
632.254;36488.859;  -11.282;35130.289
632.834;36211.371;  -13.322;35794.570
633.413;34650.574;  -10.301;35788.922
633.992;32099.793;   -8.582;34532.863
634.571;32462.232;   -8.352;33590.113
635.151;34995.266;  -11.912;34943.863
635.730;33726.313;  -10.511;35352.523
636.309;30582.781;   -7.731;35366.605
636.888;28024.244;   -9.952;36165.637
637.467;28267.889;  -11.672;37515.902
638.046;29616.023;   -8.901;39288.695
638.625;32475.590;   -7.912;38279.699
639.204;32450.217;  -10.022;37741.598
639.782;31416.750;  -12.252;38364.551
640.361;27756.578;  -10.041;36740.621
640.940;25093.289;  -11.161;34950.082
641.519;25900.398;   -9.701;34137.398
642.097;28814.129;  -11.271;35654.258
642.676;31362.170;   -8.651;35637.957
643.255;32645.463;   -8.711;36567.074
643.833;31949.570;   -9.581;37809.434
644.412;31900.395;  -13.711;37337.293
644.990;30894.271;  -11.811;37018.531
645.569;30654.586;   -9.411;36518.469
646.147;30172.889;  -10.291;36186.430
646.726;30439.234;  -12.401;36267.688
647.304;31500.686;  -10.411;36647.625
647.882;32718.098;   -9.651;39286.742
648.461;34277.375;   -9.631;39157.703
649.039;32789.746;  -11.881;35412.883
649.617;31709.191;   -9.661;34744.918
650.195;30825.580;   -9.301;35403.098
650.773;29539.117;  -10.511;35053.797
651.352;27379.561;  -11.521;33756.816
651.930;25135.939;  -12.211;31868.773
652.508;23598.846;   -9.171;33121.551
653.086;27415.510;   -9.371;33564.793
653.663;30606.199;  -13.161;34054.668
654.241;29158.254;  -13.031;35693.309
654.819;30275.469;   -9.371;36422.906
655.397;30118.633;  -10.511;38213.484
655.975;29713.787;  -10.371;39507.625
656.553;29512.076;  -10.051;39498.223
657.130;28080.053;  -10.061;40395.480
657.708;27299.238;   -9.561;39242.020
658.286;27384.350;  -11.511;38920.020
658.863;28672.658;  -10.261;40202.898
659.441;32094.395;   -7.531;39677.938
660.018;32211.350;   -9.501;40413.355
660.596;30758.510;  -13.301;39931.414
661.173;32100.828;  -11.211;39604.531
661.750;32550.340;   -9.951;39700.070
662.328;31502.693;   -9.390;39292.809
662.905;30642.264;  -11.330;38235.648
663.482;26526.725;   -9.050;36212.305
664.060;24602.303;   -8.240;35944.945
664.637;27468.916;  -10.050;35170.785
665.214;28784.748;  -11.760;34197.523
665.791;30380.943;  -10.530;34549.520
666.368;29597.613;   -9.690;35118.578
666.945;29987.369;   -9.320;36019.418
667.522;31558.186;  -11.860;36048.438
668.099;31340.914;  -10.770;36243.914
668.676;29957.633;   -6.260;35958.875
669.253;28626.594;   -7.000;37384.730
669.830;28755.107;  -10.190;36779.629
670.407;28769.008;   -9.550;35231.289
670.984;28747.369;   -9.260;35544.270
671.560;29683.031;   -9.280;35466.867
672.137;29074.021;  -11.810;34280.863
672.714;30053.768;  -11.490;34632.863
673.290;31229.564;   -7.740;35135.422
673.867;31229.582;  -10.660;36114.480
674.443;31043.607;  -12.230;36152.859
675.020;28967.432;  -10.450;35327.238
675.596;29820.832;   -9.260;35795.176
676.173;30472.939;  -10.780;35430.355
676.749;30108.479;  -13.690;33549.516
677.326;29938.428;  -11.980;32210.012
677.902;29798.955;   -8.630;32068.871
678.478;29320.197;  -10.730;32583.891
679.054;28440.094;  -10.520;32088.928
679.631;28714.750;  -11.920;30978.848
680.207;30111.904;   -7.490;33160.887
680.783;31591.438;   -9.860;35570.363
681.359;30745.293;  -13.380;36125.184
681.935;30579.646;  -12.480;35240.922
682.511;30609.479;   -7.900;34429.961
683.087;30999.434;   -7.710;34463.680
683.663;30160.438;  -11.480;34648.898
684.239;28719.564;  -14.090;34546.457
684.815;28018.633;   -7.560;35586.375
685.390;27960.336;   -9.910;35821.895
685.966;28442.852;  -11.159;35085.871
686.542;30833.684;  -11.169;34198.230
687.118;33371.668;   -5.959;32847.707
687.693;34045.285;  -10.329;32794.027
688.269;33699.629;  -12.059;33072.367
688.844;31937.604;  -10.909;33141.664
689.420;29972.215;   -8.019;33965.742
689.995;28239.436;   -8.399;34655.523
690.571;26736.730;  -10.949;33576.742
691.146;26598.486;   -9.619;32657.219
691.722;26496.627;   -8.999;32526.979
692.297;26068.338;  -11.589;33014.617
692.872;27337.531;  -11.739;34012.254
693.448;27266.049;  -11.059;34237.434
694.023;26301.004;  -10.139;34142.672
694.598;28180.523;   -9.029;34132.031
695.173;28994.572;  -13.319;34205.250
695.748;27905.455;  -10.169;32882.488
696.323;27691.238;   -8.339;32864.906
696.898;27909.604;   -8.169;33170.004
697.473;28274.371;  -12.309;32432.984
698.048;27752.861;  -10.989;31649.303
698.623;27438.266;   -9.329;30778.141
699.198;28815.898;   -9.849;31140.119
699.773;30207.873;  -12.329;31764.299
700.348;28975.975;  -10.389;31780.816
700.922;28907.154;   -9.269;32046.375
701.497;30078.059;   -9.329;32603.574
702.072;30502.623;  -10.789;34799.871
702.646;28971.629;  -10.839;35793.172
703.221;26634.828;   -9.099;35201.590
703.795;28419.143;  -10.939;34764.527
704.370;28924.594;  -12.859;34307.367
704.944;29178.773;  -11.559;33509.887
705.519;29801.658;   -7.939;31388.584
706.093;30993.721;  -10.499;31340.104
706.668;31397.693;  -11.289;32630.281
707.242;30317.807;  -11.509;32728.779
707.816;29114.189;   -9.639;32947.238
708.390;27549.146;  -11.429;33277.855
708.965;27974.250;  -11.869;33834.336
709.539;28066.318;  -11.689;33709.273
710.113;28099.434;  -10.478;33044.313
710.687;27604.996;  -10.228;31953.992
711.261;26043.191;  -13.698;30505.949
711.835;25799.686;  -13.378;30262.369
712.409;26124.584;   -9.698;31254.447
712.983;28165.416;  -11.898;32754.986
713.557;29492.313;  -15.138;34018.824
714.131;29504.840;  -14.098;34579.625
714.704;28637.262;   -9.958;33890.262
715.278;26028.092;  -10.028;33531.102
715.852;24787.914;  -11.148;33601.660
716.425;25877.529;   -9.068;33515.117
716.999;26995.666;  -10.038;33185.555
717.573;27863.990;   -9.798;33905.996
718.146;28893.168;  -12.378;35199.293
718.720;29065.254;  -11.918;35060.551
719.293;28982.688;   -8.088;34973.230
719.867;31951.881;  -10.888;36394.449
720.440;31746.975;  -11.938;36663.008
721.013;29919.785;  -12.818;35102.426
721.587;28346.768;  -10.298;33985.266
722.160;27082.473;  -10.048;33524.965
722.733;25987.465;  -12.108;32987.043
723.306;26190.098;  -10.818;33066.301
723.880;28344.502;   -8.908;33399.500
724.453;30727.529;   -9.878;33468.297
725.026;30165.971;  -11.188;33816.637
725.599;27280.238;  -11.678;32797.996
726.172;26988.020;   -9.618;33187.434
726.745;27968.654;   -8.258;35136.613
727.318;29256.984;  -12.978;35751.730
727.891;30083.709;  -12.148;35890.430
728.463;29627.906;   -8.968;34822.090
729.036;28208.605;  -10.188;32895.086
729.609;28751.529;  -11.788;31823.225
730.182;26023.316;  -11.788;31445.283
730.754;23723.510;  -10.268;32373.223
731.327;24164.994;   -9.998;33676.820
731.900;24530.979;  -12.228;33417.000
732.472;24969.313;  -13.848;31978.498
733.045;26235.467;   -8.698;30368.777
733.617;26263.896;  -10.607;30574.215
734.190;26719.754;  -11.507;31280.975
734.762;24627.646;  -13.647;31674.412
735.334;22820.709;   -9.767;31247.291
735.907;23233.215;   -9.897;29876.211
736.479;23516.262;  -11.637;29808.488
737.051;23124.736;   -9.567;30233.547
737.623;23650.707;   -8.187;31469.086
738.195;23953.668;  -11.187;31784.225
738.768;25904.650;  -12.337;32120.523
739.340;26935.309;  -12.227;32094.342
739.912;26199.121;  -11.057;31312.680
740.484;24733.805;  -10.207;31946.238
741.056;22958.090;  -10.047;32984.059
741.628;23887.301;  -13.627;33897.715
742.199;25898.881;   -7.177;33213.016
742.771;24744.316;  -10.797;31369.113
743.343;22794.730;  -11.997;31865.473
743.915;21907.486;  -12.867;32388.631
744.487;21885.125;   -7.617;31079.568
745.058;21975.193;   -9.557;30570.107
745.630;22616.230;   -9.877;29970.127
746.201;23986.424;  -14.177;29186.766
746.773;24831.211;   -9.237;28805.723
747.344;24621.520;   -9.847;29591.223
747.916;22790.342;  -11.657;31412.201
748.487;22768.008;  -10.587;32194.898
749.059;24143.832;   -8.707;32533.719
749.630;24902.941;  -10.537;32158.518
750.201;23979.531;  -11.687;30855.395
750.773;22237.836;  -11.647;28622.555
751.344;21803.822;   -7.147;28405.732
751.915;22630.270;   -9.757;28461.551
752.486;22899.609;  -12.427;27842.850
753.057;21009.914;  -12.227;27845.008
753.628;19738.178;  -10.417;27728.107
754.199;20571.518;  -11.767;27381.086
754.770;21619.490;  -11.187;25882.203
755.341;21852.609;  -10.507;25886.184
755.912;22082.457;   -9.387;26050.861
756.483;21649.260;  -10.647;26798.779
757.054;19894.916;  -11.837;27048.238
757.625;18416.119;  -12.716;26294.838
758.195;18130.418;   -9.666;26142.076
758.766;17795.016;   -8.656;26392.234
759.337;18338.600;  -12.856;26334.594
759.907;19765.643;  -13.366;27579.652
760.478;20701.213;   -8.576;28352.770
761.048;20236.463;  -10.526;27325.088
761.619;19248.240;  -11.116;26460.428
762.189;19306.217;  -12.136;26029.826
762.760;20370.486;   -9.456;26430.145
763.330;21599.385;   -7.136;26670.902
763.900;21270.861;  -11.786;26603.021
764.471;18869.629;  -11.546;25542.740
765.041;17412.965;   -8.096;24358.459
765.611;17141.445;   -8.876;23991.297
766.181;17349.814;  -12.196;24470.236
766.751;18553.098;  -11.636;24845.975
767.321;18448.373;  -10.156;24533.633
767.891;16394.408;  -11.766;24916.492
768.461;15695.502;  -14.936;24776.771
769.031;16108.248;  -12.356;24757.988
769.601;17836.887;   -7.526;24181.088
770.171;18065.637;  -10.766;23670.387
770.741;17111.127;  -13.176;22960.045
771.311;17046.141;  -10.616;22917.523
771.880;17707.094;   -9.576;23562.941
772.450;17730.863;  -10.336;24216.500
773.020;17650.027;  -13.516;24140.398
773.589;16723.127;  -13.466;24414.857
774.159;15944.276;   -8.686;23858.717
774.729;15563.963;   -9.476;22942.135
775.298;15257.633;  -13.666;22324.033
775.867;14824.430;  -11.716;21140.313
776.437;15024.733;   -9.906;20838.092
777.006;14817.229;  -12.166;20599.510
777.576;14395.817;  -12.356;20508.809
778.145;14310.525;  -11.646;20732.947
778.714;14437.343;   -8.226;21062.465
779.283;13999.536;   -9.556;20949.664
779.853;13477.697;  -14.116;20508.623
780.422;13866.271;  -11.506;20649.082
780.991;13425.071;   -9.556;21527.520
781.560;12087.214;   -9.095;22632.658
782.129;11852.643;  -12.135;23048.277
782.698;11842.615;  -10.865;23438.555
783.267;11498.880;   -9.335;23267.734
783.836;11429.233;  -11.045;22415.133
784.404;12420.188;  -13.865;20443.152
784.973;13145.941;  -13.095;19699.150
785.542;13225.938;  -11.575;19763.828
786.111;13012.557;   -9.705;20341.408
786.679;12557.896;  -12.105;20207.967
787.248;12296.465;  -12.455;19516.465
787.817;12090.803;  -11.535;18900.363
788.385;11763.603;   -9.765;17879.121
788.954;11218.047;  -14.005;17658.301
789.522;10529.357;  -11.955;17788.879
790.090;10863.904;  -10.135;18118.277
790.659;11492.905;  -10.975;18338.736
791.227;11168.084;  -13.375;18508.615
791.795;11565.101;  -12.375;17898.254
792.364;11878.219;  -10.725;17295.133
792.932;12214.531;   -9.715;16822.051
793.500;12525.322;  -12.675;17040.148
794.068;12730.191;  -13.495;17179.787
794.636;12898.962;  -10.885;16664.246
795.204;12184.021;  -11.045;16524.545
795.772;12114.174;  -13.175;17274.564
796.340;11659.998;  -12.445;17891.002
796.908;11415.483;   -9.735;17648.561
797.476;11298.582;   -9.815;17064.080
798.044;10909.531;  -13.985;16672.777
798.612;10167.134;  -13.115;17023.996
799.180; 9782.234;  -10.185;16561.615
799.747; 9624.700;   -9.055;15962.773
800.315; 9298.236;  -12.385;15296.992
800.883; 9100.427;  -15.035;14801.771
801.450; 9312.734;  -10.365;14534.430
802.018; 9432.336;   -9.855;14173.248
802.585; 9441.266;  -11.905;14029.547
803.153; 9420.680;  -11.585;13836.846
803.720; 9251.824;   -9.095;13567.324
804.287; 8767.410;   -9.135;13360.622
804.855; 8238.194;  -11.604;13681.981
805.422; 8091.173;  -11.794;13536.560
805.989; 8186.162;  -10.734;13355.958
806.556; 8406.646;  -10.444;13747.896
807.124; 8680.561;  -12.764;13987.376
807.691; 8633.805;  -12.964;14038.674
808.258; 8441.146;  -11.134;14120.152
808.825; 8109.649;   -9.854;13860.111
809.392; 8216.271;  -10.504;13268.790
809.959; 7756.378;  -13.054;12680.389
810.526; 7261.717;   -8.294;12427.308
811.093; 7226.410;   -8.394;12030.105
811.659; 7867.463;  -12.304;11653.664
812.226; 8491.870;  -13.944;11637.183
812.793; 8252.954;  -10.484;11611.521
813.360; 7576.518;  -10.144;11885.181
813.926; 7218.340;  -11.684;12770.539
814.493; 7008.767;  -13.644;12677.638
815.060; 6625.479;   -9.724;11974.336
815.626; 6552.221;   -9.854;11594.715
816.193; 6905.868;  -13.254;11579.474
816.759; 6945.925;  -13.204;11666.972
817.325; 6974.995;   -9.434;11325.530
817.892; 7323.075;  -10.134;11105.369
818.458; 7768.914;  -13.474;10843.928
819.024; 7440.239;  -11.854;10714.406
819.591; 7140.501;  -10.244;10469.165
820.157; 6945.203;  -10.704;10235.523
820.723; 6421.862;  -12.324;10847.563
821.289; 6091.564;   -9.444;11040.980
821.855; 6020.650;   -8.374;10357.100
822.421; 6011.804;  -10.234; 9978.918
822.987; 5999.913;  -13.294; 9754.177
823.553; 5604.836;  -10.884;10065.755
824.119; 5366.177;   -8.884;10036.294
824.685; 5506.457;   -6.784;10029.192
825.251; 5657.893;  -12.004;10199.230
825.816; 5611.842;  -11.474; 9820.189
826.382; 5304.479;   -9.174; 9297.248
826.948; 5424.239;   -9.214; 9381.347
827.513; 5842.671;  -10.774; 9450.726
828.079; 5743.080;  -11.924; 9472.444
828.645; 5136.493;  -10.543; 9292.643
829.210; 4923.706;  -10.533; 9065.341
829.776; 4888.429;  -10.753; 9132.620
830.341; 4770.564;  -10.173; 9092.878
830.906; 4907.561;  -10.743; 9078.557
831.472; 5255.968;  -11.113; 8534.535
832.037; 5090.495;  -10.603; 8677.874
832.602; 4591.888;  -13.323; 8628.692
833.167; 4328.884;  -10.823; 8879.031
833.733; 4281.818;  -10.113; 9189.790
834.298; 4422.717;  -13.583; 9052.608
834.863; 4562.986;  -12.703; 8895.087
835.428; 4579.533;  -10.523; 8824.266
835.993; 4418.063;   -6.963; 8845.385
836.558; 4230.000;  -10.763; 8888.563
837.123; 4291.174;   -9.903; 8966.582
837.688; 4540.817;   -9.913; 8617.860
838.253; 4818.570;  -10.283; 8590.699
838.817; 5021.338;  -12.963; 8443.797
839.382; 4945.246;  -14.243; 8799.356
839.947; 4629.000;  -10.733; 8810.595
840.511; 4334.889;   -9.383; 8796.394
841.076; 3951.793;  -12.563; 8347.231
841.641; 3996.225;  -12.953; 8224.330
842.205; 4111.181;   -7.043; 8223.349
842.770; 4132.721;   -8.163; 8622.107
843.334; 4257.142;  -12.503; 8410.386
843.898; 4217.604;  -11.693; 8337.465
844.463; 4206.857;  -10.203; 8506.283
845.027; 3998.163;   -9.533; 8280.962
845.591; 3807.380;  -13.443; 8231.141
846.156; 3822.394;  -13.143; 7969.179
846.720; 3748.682;   -9.433; 7768.278
847.284; 3648.249;  -11.033; 7630.957
847.848; 3510.571;  -10.403; 7472.395
848.412; 3417.878;  -11.553; 7437.394
848.976; 3451.581;   -8.393; 7674.592
849.540; 3360.576;   -8.713; 7836.011
850.104; 3392.171;  -12.463; 7913.669
850.668; 3749.952;  -12.973; 7694.508
851.232; 3931.516;  -10.793; 7756.887
851.796; 3806.540;  -10.662; 7926.545
852.359; 3484.633;  -13.082; 7827.844
852.923; 3297.583;  -12.192; 7641.163
853.487; 3165.021;  -11.912; 7342.501
854.050; 3150.921;  -10.892; 7042.820
854.614; 3279.967;  -13.992; 7151.338
855.177; 3386.753;  -11.732; 7105.077
855.741; 3419.114;   -8.962; 6989.675
856.304; 3313.799;   -9.442; 6596.634
856.868; 3288.320;  -14.192; 6356.272
857.431; 3422.846;  -12.702; 6468.571
857.995; 3563.813;   -9.942; 6373.210
858.558; 3603.177;   -9.112; 6324.448
859.121; 3336.761;  -12.932; 6408.327
859.684; 3145.080;  -13.442; 6347.886
860.247; 3246.492;  -10.632; 6321.264
860.810; 3294.253;  -11.272; 6301.903
861.374; 3050.054;   -9.832; 6607.881
861.937; 2777.545;  -11.762; 6408.200
862.500; 2769.267;   -9.722; 6572.639
863.062; 2912.082;  -10.512; 6387.297
863.625; 3052.453;  -11.232; 6190.836
864.188; 3220.678;  -14.112; 5807.254
864.751; 3320.929;  -11.302; 5682.413
865.314; 3248.073;  -10.112; 5547.492
865.876; 3014.322;  -12.182; 5500.150
866.439; 2962.871;  -10.722; 5415.909
867.002; 2922.964;   -9.252; 5501.567
867.564; 2741.266;   -9.572; 5413.946
868.127; 2531.910;  -13.142; 5160.325
868.689; 2405.305;  -12.902; 5133.183
869.252; 2294.425;   -9.732; 5252.382
869.814; 2189.800;   -9.432; 5297.141
870.377; 2183.603;  -11.552; 5390.919
870.939; 2243.722;   -9.052; 5599.898
871.501; 2322.769;  -10.982; 5248.336
872.063; 2350.699;  -12.292; 4854.235
872.626; 2294.061;  -14.912; 4817.074
873.188; 2278.876;  -13.112; 4987.732
873.750; 2251.389;  -13.442; 4868.651
874.312; 2173.254;   -9.402; 4779.330
874.874; 2096.125;  -11.062; 4866.348
875.436; 2012.776;  -13.931; 4718.887
875.998; 2005.810;   -9.561; 4660.005
876.560; 2038.514;  -11.321; 4462.964
877.122; 1986.850;  -12.221; 4145.042
877.683; 1880.768;  -12.191; 4056.481
878.245; 1793.522;  -12.101; 3950.740
878.807; 1827.795;   -8.971; 4058.958
879.369; 1856.384;  -12.071; 3954.677
879.930; 1768.241;  -14.621; 3941.495
880.492; 1699.371;  -10.311; 4067.014
881.053; 1673.578;  -10.901; 3859.633
881.615; 1579.886;  -14.411; 3776.071
882.176; 1481.857;  -13.761; 3734.750
882.738; 1428.332;   -9.181; 3678.489
883.299; 1405.339;  -11.791; 3405.407
883.860; 1389.038;  -13.121; 3351.106
884.422; 1372.539;  -11.211; 3394.044
884.983; 1335.728;  -10.091; 3166.443
885.544; 1296.063;   -8.461; 3189.802
886.105; 1270.040;  -12.361; 3160.360
886.666; 1208.757;  -14.141; 3093.059
887.227; 1034.376;  -11.361; 2941.957
887.788;  792.764;  -11.401; 2974.836
888.349;  603.030;  -13.791; 2721.214
888.910;  536.933;  -13.191; 2696.493
889.471;  538.021;   -9.881; 2560.172
890.032;  553.935;   -9.881; 2558.190
890.593;  571.115;  -10.371; 2567.669
891.153;  586.425;  -13.301; 2460.307
891.714;  581.404;  -11.431; 2372.046
892.275;  579.063;  -11.291; 2309.505
892.835;  571.241;  -11.471; 2382.543
893.396;  542.446;  -11.541; 2295.502
893.956;  501.342;  -11.181; 2162.420
894.517;  470.352;  -11.741; 2125.439
895.077;  467.369;  -11.671; 2086.978
895.638;  472.826;  -11.311; 2126.316
896.198;  452.156;   -9.831; 1838.275
896.758;  417.807;   -8.421; 1892.813
897.319;  389.623;  -12.351; 1792.232
897.879;  377.474;  -13.511; 1762.751
898.439;  355.218;  -12.001; 1661.149
898.999;  333.139;  -10.180; 1781.468
899.559;  325.171;  -12.030; 1703.347
900.119;  322.061;  -15.710; 1537.525
900.679;  319.178;   -8.900; 1638.384
901.239;  306.166;   -8.340; 1527.902
901.799;  297.267;  -13.910; 1456.441
902.359;  292.701;  -13.460; 1357.140
902.919;  285.520;  -11.490; 1331.118
903.479;  273.797;  -12.110; 1317.257
904.038;  255.770;  -11.720; 1262.595
904.598;  241.411;  -13.610; 1152.034
905.158;  237.186;  -11.040; 1240.893
905.717;  231.006;  -10.900; 1233.691
906.277;  220.734;  -15.080; 1217.330
906.836;  211.202;  -13.380; 1222.408
907.396;  201.315;  -10.780; 1193.047
907.955;  194.544;   -8.500; 1182.526
908.515;  189.995;  -12.760; 1099.364
909.074;  183.753;  -11.900; 1092.863
909.633;  179.235;   -8.950; 1069.121
910.192;  175.302;   -8.770; 1196.460
910.752;  170.532;  -12.390; 1029.960
911.311;  166.350;  -13.680; 1009.780
911.870;  164.424;  -12.370;  971.460
912.429;  165.265;  -10.900; 1094.080
912.988;  163.946;  -11.690; 1081.060
913.547;  159.828;  -13.240;  940.380
914.106;  155.579;  -11.990;  999.420
914.665;  152.964;   -9.990;  984.020
915.224;  151.288;  -12.880; 1035.760
915.782;  151.579;  -12.350;  922.560
916.341;  150.499;   -9.110; 1049.840
916.900;  147.332;   -9.270;  925.260
917.458;  145.405;  -13.240;  884.220
918.017;  145.231;  -13.550;  942.600
918.576;  144.889;  -12.320;  904.440
919.134;  142.443;  -11.490;  837.980
919.693;  141.213;  -13.670;  893.060
920.251;  139.421;  -15.470;  876.500
920.809;  138.907;  -11.290;  839.580
921.368;  138.105;  -10.210;  885.360
921.926;  137.719;  -12.140;  842.940
922.484;  136.364;  -13.080;  903.360
923.042;  135.107;  -11.720;  880.340
923.601;  138.419;   -7.480;  998.680
924.159;  136.351;  -11.570;  935.560
924.717;  133.420;  -13.840;  841.080
925.275;  132.975;  -10.640;  903.240
925.833;  132.231;  -11.540;  779.320
926.391;  134.249;  -12.960;  938.380
926.949;  132.071;  -14.130;  857.680
927.506;  132.279;  -11.750;  903.500
928.064;  132.599;  -10.250;  877.580
928.622;  131.870;  -13.030;  880.100
929.180;  131.467;  -13.400;  814.180
929.737;  131.983;  -10.700;  808.540
930.295;  135.775;  -10.070;  928.480
930.853;  136.740;  -11.960;  849.100
931.410;  137.603;  -13.120;  821.120
931.968;  137.159;  -10.770;  940.660
932.525;  137.343;  -10.680;  909.380
933.082;  138.347;  -13.130;  811.440
933.640;  138.737;  -13.210;  925.900
934.197;  137.439;  -11.060;  886.360
934.754;  138.336;   -9.580;  897.780
935.312;  141.623;  -14.000;  863.340
935.869;  145.269;  -10.710; 1012.980
936.426;  145.338;   -9.860;  872.800
936.983;  147.054;   -9.710;  889.020
937.540;  146.445;  -13.990;  838.280
938.097;  146.199;  -14.040;  940.120
938.654;  145.894;  -10.310;  898.860
939.211;  148.343;  -10.560;  952.480
939.768;  151.947;  -13.900;  915.420
940.324;  155.369;  -14.760;  904.200
940.881;  156.894;  -10.370;  878.500
941.438;  157.279;   -8.260; 1021.200
941.995;  153.821;  -12.540;  992.560
942.551;  150.902;  -14.670;  875.620
943.108;  150.246;  -10.450;  937.920
943.664;  152.643;  -10.750;  869.340
944.221;  156.057;  -11.550; 1088.140
944.777;  153.792;  -14.770;  869.680
945.334;  153.607;  -12.820;  884.840
945.890;  155.405;  -10.130;  946.480
946.446;  155.575;  -13.470;  947.020
947.003;  157.720;  -12.120;  964.940
947.559;  159.807;   -9.980; 1063.040
948.115;  160.453;   -9.080; 1026.540
948.671;  158.203;  -10.830;  967.300
949.227;  154.610;  -12.440;  859.560
949.783;  153.343;  -12.910;  858.900
950.339;  154.210;  -10.270;  991.000
950.895;  154.851;  -13.630; 1023.840
951.451;  153.743;  -15.100;  925.280
952.007;  153.037;  -11.330;  998.540
952.563;  152.386;  -10.580;  937.780
953.118;  151.472;  -13.440;  904.940
953.674;  150.871;  -12.710;  935.780
954.230;  151.061;  -10.350;  949.640
954.785;  147.733;   -9.190;  936.640
955.341;  147.044;  -11.200;  998.160
955.897;  145.037;  -16.560;  834.660
956.452;  146.558;  -12.570;  953.840
957.008;  146.501;   -7.970; 1083.640
957.563;  144.621;  -11.940; 1009.540
958.118;  138.673;  -13.450;  877.700
958.674;  138.998;  -12.030;  946.780
959.229;  140.054;   -9.410; 1013.980
959.784;  138.251;  -12.000;  832.400
960.339;  137.679;  -14.780; 1001.280
960.894;  133.816;   -9.860;  963.760
961.449;  129.446;   -9.970;  859.960
962.004;  129.917;  -10.900; 1212.840
962.559;  124.800;  -13.150;  860.140
963.114;  121.720;  -13.740;  742.480
963.669;  122.099;   -9.820;  915.500
964.224;  119.364;  -13.890;  874.340
964.779;  118.758;  -12.600;  828.420
965.334;  119.936;  -10.950; 1017.860
965.888;  119.129;  -11.170;  875.360
966.443;  122.184;  -12.540;  972.380
966.998;  122.888;  -15.780;  819.460
967.552;  121.656;   -9.760;  908.380
968.107;  117.427;   -9.060;  868.300
968.661;  118.258;  -11.950;  922.440
969.216;  118.904;  -12.800;  856.280
969.770;  118.625;  -11.210;  917.200
970.324;  117.054;  -11.610;  923.140
970.879;  114.506;  -11.370;  947.180
971.433;  111.282;  -12.540;  952.720
971.987;  106.095;  -11.320;  895.340
972.541;  103.398;  -10.720;  917.100
973.095;  102.941;   -9.680; 1009.460
973.649;  101.626;  -11.440;  809.480
974.203;  100.605;  -11.210;  829.040
974.757;  100.465;  -10.240;  855.220
975.311;  100.795;  -13.720;  872.600
975.865;  100.509;  -13.770;  881.820
976.419;   98.007;  -11.690;  857.400
976.973;   97.555;   -9.510;  849.620
977.526;   99.426;  -12.620;  949.920
978.080;   98.410;  -12.010;  796.780
978.634;  100.623;  -10.170;  921.320
979.187;   97.919;   -9.020;  905.400
979.741;   95.940;   -9.820; 1018.380
980.294;   90.508;  -14.870;  789.160
980.848;   88.573;  -12.380;  717.220
981.401;   90.091;  -10.350;  816.540
981.955;   92.493;  -13.720;  844.300
982.508;   92.147;  -11.490;  746.340
983.061;   92.407;  -10.000;  915.260
983.615;   88.062;  -11.480;  798.800
984.168;   85.148;  -13.220;  770.080
984.721;   84.813;  -13.960;  880.760
985.274;   83.762;  -10.870;  867.500
985.827;   82.404;   -9.790;  834.220
986.380;   80.496;  -13.120;  721.340
986.933;   79.587;  -12.450;  864.800
987.486;   77.732;  -10.210;  861.920
988.039;   76.819;   -8.430;  863.100
988.591;   75.371;  -10.520;  893.260
989.144;   73.045;  -14.860;  737.260
989.697;   71.328;  -13.080;  758.740
990.250;   72.260;  -10.150;  858.100
990.802;   70.997;  -13.430;  755.860
991.355;   72.124;  -12.750;  974.880
991.907;   69.453;  -12.040;  864.320
992.460;   66.782;  -11.330;  753.760
993.012;   67.141;  -13.610;  749.540
993.565;   65.722;  -13.460;  711.360
994.117;   67.226;   -9.360;  950.780
994.669;   63.783;  -11.300;  701.320
995.221;   62.427;  -13.540;  791.920
995.774;   60.690;  -13.430;  787.580
996.326;   58.516;  -12.520;  740.220
996.878;   58.741;  -10.950;  838.420
997.430;   55.795;  -14.300;  699.860
997.982;   55.977;  -13.760;  750.140
998.534;   55.154;  -11.530;  739.060
999.086;   53.320;  -10.310;  738.220
999.638;   52.441;  -12.530;  661.380
1000.190;   52.480;  -11.840;  699.320
1000.741;   51.671;  -10.260;  742.700
1001.293;   51.564;   -8.860;  686.020
1001.845;   50.410;  -13.700;  676.640
1002.396;   50.638;  -12.100;  743.400
1002.948;   49.395;  -12.760;  737.400
1003.500;   48.039;  -10.380;  723.780
1004.051;   48.240;  -11.900;  907.580
1004.603;   47.864;  -12.250;  791.820
1005.154;   43.492;  -13.210;  608.980
1005.705;   42.820;  -10.950;  723.960
1006.257;   41.623;  -13.880;  707.220
1006.808;   41.395;  -12.840;  685.460
1007.359;   40.328;  -10.570;  763.240
1007.910;   40.027;   -9.620;  646.640
1008.461;   39.910;  -13.630;  732.940
1009.013;   38.769;  -17.200;  588.340
1009.564;   39.588;  -10.200;  793.520
1010.115;   37.458;  -12.570;  597.040
1010.665;   37.816;  -15.150;  602.160
1011.216;   37.790;  -14.480;  667.920
1011.767;   36.913;  -11.340;  697.920
1012.318;   37.377;   -9.780;  736.980
1012.869;   35.940;  -12.380;  679.000
1013.419;   35.280;  -15.560;  603.120
1013.970;   36.149;  -11.010;  666.640
1014.521;   34.342;  -11.610;  620.620
1015.071;   35.270;  -13.450;  670.380
1015.622;   34.634;  -13.870;  635.460
1016.172;   34.549;  -11.610;  596.820
1016.723;   33.540;  -12.120;  614.380
1017.273;   33.166;  -13.620;  604.160
1017.823;   34.043;  -14.140;  650.340
1018.374;   32.984;  -12.800;  611.760
1018.924;   33.434;  -12.340;  716.880
1019.474;   33.481;  -11.410;  718.880
1020.024;   32.471;  -14.770;  657.580
1020.574;   32.486;   -9.780;  726.160
1021.124;   33.342;   -8.560;  673.580
1021.674;   31.474;  -15.190;  559.120
1022.224;   32.825;  -13.530;  708.940
1022.774;   31.682;  -13.280;  668.820
1023.324;   31.839;  -10.690;  753.520
1023.874;   33.476;  -10.240;  875.760
1024.423;   30.680;  -12.540;  613.700
1024.973;   30.331;  -10.010;  610.760
1025.523;   29.690;  -10.550;  620.960
1026.072;   29.945;  -13.560;  606.420
1026.622;   29.625;  -15.120;  675.740
1027.172;   30.375;  -11.260;  715.660
1027.721;   29.424;  -11.410;  601.220
1028.270;   29.392;  -13.530;  663.400
1028.820;   30.489;  -13.680;  638.080
1029.369;   29.137;  -13.520;  612.700
1029.918;   29.065;  -10.980;  649.840
1030.468;   28.569;  -13.530;  564.780
1031.017;   29.297;  -13.170;  634.800
1031.566;   27.879;  -12.200;  608.900
1032.115;   28.060;   -9.960;  694.500
1032.664;   26.847;  -13.210;  596.480
1033.213;   28.348;  -12.500;  735.420
1033.762;   27.096;  -11.910;  635.620
1034.311;   27.504;   -9.640;  677.220
1034.860;   27.801;  -13.310;  691.000
1035.408;   27.756;  -11.830;  722.720
1035.957;   27.770;  -12.000;  719.540
1036.506;   25.745;  -11.690;  530.800
1037.055;   28.063;  -10.990;  844.320
1037.603;   26.145;  -15.120;  664.000
1038.152;   25.144;  -12.450;  534.760
1038.700;   25.115;  -10.560;  585.740
1039.249;   25.138;  -11.080;  681.220
1039.797;   26.102;  -12.540;  633.360
1040.345;   24.840;  -11.920;  705.420
1040.894;   24.809;  -11.410;  625.300
1041.442;   25.238;  -14.320;  632.200
1041.990;   24.476;  -16.240;  559.160
1042.538;   23.617;  -11.680;  536.180
1043.087;   23.359;  -10.760;  570.860
1043.635;   25.217;  -11.850;  670.500
1044.183;   23.990;  -15.480;  586.400
1044.731;   23.121;  -11.770;  576.000
1045.279;   23.128;  -13.090;  674.920
1045.827;   25.377;  -12.440;  892.400
1046.374;   22.902;  -13.840;  515.420
1046.922;   22.276;  -13.220;  590.580
1047.470;   23.577;  -10.230;  691.300
1048.018;   23.005;  -14.590;  647.960
1048.565;   23.905;  -12.050;  708.600
1049.113;   21.730;  -11.650;  557.000
1049.660;   22.500;  -10.510;  629.660
1050.208;   22.108;  -13.310;  675.640
1050.755;   21.689;  -15.900;  606.580
1051.303;   22.048;  -11.430;  686.820
1051.850;   21.477;   -8.480;  635.120
1052.397;   20.030;  -15.010;  473.960
1052.945;   20.614;  -13.960;  617.760
1053.492;   22.411;  -13.150;  741.840
1054.039;   22.441;   -9.630;  720.180
1054.586;   20.091;  -13.680;  557.240
1055.133;   21.358;  -14.570;  693.140
1055.680;   21.050;  -13.820;  646.620
1056.227;   20.402;  -11.730;  542.780
1056.774;   22.355;  -12.480;  794.980
1057.321;   19.804;  -13.930;  523.260
1057.868;   19.790;  -11.690;  651.320
1058.415;   19.872;   -9.520;  651.980
1058.961;   20.207;  -13.160;  678.940
1059.508;   20.237;  -12.920;  643.820
1060.055;   19.298;  -11.920;  581.780
1060.601;   20.030;  -11.500;  624.300
1061.148;   19.398;  -14.330;  616.820
1061.694;   18.510;  -16.870;  592.580
1062.241;   19.294;  -10.330;  596.320
1062.787;   19.338;  -10.620;  663.140
1063.334;   21.011;  -10.110;  808.560
1063.880;   19.342;  -13.400;  668.360
1064.426;   18.790;  -10.680;  706.820
1064.972;   17.783;   -9.920;  601.340
1065.518;   16.585;  -10.980;  566.640
1066.065;   18.230;  -14.890;  624.460
1066.611;   16.874;  -12.870;  598.800
1067.157;   18.210;  -12.950;  641.860
1067.703;   18.380;  -13.540;  668.480
1068.249;   18.846;  -13.540;  605.220
1068.794;   17.508;  -12.600;  626.880
1069.340;   16.337;  -10.620;  578.960
1069.886;   17.609;  -12.830;  590.700
1070.432;   16.562;  -14.870;  541.720
1070.977;   16.370;  -11.980;  601.080
1071.523;   16.314;   -8.200;  573.060
1072.068;   17.055;  -12.330;  582.000
1072.614;   16.696;  -16.370;  527.760
1073.160;   17.534;  -11.100;  687.040
1073.705;   15.839;  -10.480;  572.520
1074.250;   16.087;  -14.520;  559.900
1074.796;   16.763;  -11.460;  655.160
1075.341;   16.650;  -11.950;  664.100
1075.886;   16.201;  -11.460;  594.240
1076.431;   15.317;  -13.770;  649.880
1076.976;   15.583;  -12.680;  639.220
1077.521;   14.826;  -13.170;  583.080
1078.067;   14.819;  -10.860;  579.400
1078.612;   15.392;  -13.920;  661.620
1079.156;   15.402;  -13.880;  601.540
1079.701;   14.791;  -13.120;  693.260
1080.246;   15.691;   -9.940;  696.300
1080.791;   15.827;  -14.740;  625.020
1081.336;   14.938;  -13.750;  659.320
1081.880;   14.360;  -13.400;  649.680
1082.425;   13.735;  -12.220;  573.480
1082.970;   15.340;  -11.610;  717.040
1083.514;   13.910;  -13.580;  597.000
1084.059;   13.210;  -12.810;  586.720
1084.603;   13.259;  -12.320;  565.840
1085.147;   13.627;  -13.190;  645.220
1085.692;   14.135;  -12.480;  716.800
1086.236;   12.360;  -13.020;  503.140
1086.780;   14.968;   -9.190;  751.440
1087.325;   13.942;  -12.480;  654.620
1087.869;   13.321;  -12.450;  610.700
1088.413;   13.913;  -12.240;  705.040
1088.957;   12.112;   -9.020;  543.400
1089.501;   14.168;  -10.320;  766.640
1090.045;   13.171;  -12.720;  726.480
1090.589;   11.110;  -13.690;  569.920
1091.133;   12.037;  -10.020;  673.340
1091.676;   12.851;  -12.330;  591.940
1092.220;   12.312;  -14.970;  600.920
1092.764;   12.866;  -12.430;  706.960
1093.307;   12.534;   -9.800;  673.780
1093.851;   11.028;  -14.970;  556.540
1094.395;   12.537;  -15.310;  683.140
1094.938;   10.989;  -10.370;  632.520
1095.482;   11.173;  -11.050;  559.800
1096.025;   12.176;  -11.840;  710.880
1096.568;   12.856;  -12.840;  779.280
1097.112;    9.524;  -14.700;  508.180
1097.655;   11.590;   -8.720;  603.000
1098.198;    9.534;  -13.610;  600.180
1098.741;   10.164;  -13.350;  612.860
1099.285;   11.854;  -11.230;  657.300
1099.828;    9.178;  -11.840;  439.400
1100.371;    9.962;  -10.840;  608.160
1100.914;   10.881;  -14.190;  682.660
1101.457;   10.804;  -11.240;  679.900
1101.999;    9.081;  -11.270;  584.680
1102.542;   10.385;  -11.480;  641.440
1103.085;   10.198;  -11.750;  658.500
1103.628;   10.121;  -11.400;  762.060
1104.170;   10.147;  -10.490;  588.280
1104.713;    9.248;  -10.600;  646.700
1105.256;    9.346;  -14.360;  557.440
1105.798;    8.287;  -13.210;  499.980
1106.341;   10.286;  -10.270;  728.900
1106.883;    9.224;  -12.200;  521.340
1107.425;    9.480;  -13.110;  668.180
1107.968;    8.702;  -12.840;  612.380
1108.510;    9.402;   -6.480;  684.960
1109.052;    7.774;  -13.940;  612.620
1109.594;    8.319;  -13.690;  554.440
1110.136;    9.661;  -11.880;  643.220
1110.679;    8.437;   -9.500;  633.080
1111.221;    8.251;  -14.160;  604.460
1111.763;    7.703;  -13.980;  559.220
1112.304;    7.425;  -13.880;  547.140
1112.846;    8.280;  -12.210;  666.240
1113.388;   10.989;  -11.390;  942.180
1113.930;    8.424;  -14.540;  694.200
1114.472;    6.835;  -12.640;  606.540
1115.013;    5.995;  -11.620;  551.280
1115.555;    6.799;  -13.640;  587.100
1116.097;    6.797;  -15.380;  579.480
1116.638;    7.357;  -12.640;  684.600
1117.180;    7.792;   -9.850;  667.740
1117.721;    6.705;  -13.690;  568.580
1118.262;    8.081;  -12.680;  677.960
1118.804;    7.521;  -12.530;  637.340
1119.345;    6.162;  -11.690;  578.400
1119.886;    7.119;  -13.380;  704.040
1120.427;    5.905;  -14.070;  589.020
1120.969;    6.023;  -13.500;  597.920
1121.510;    5.948;  -11.480;  563.060
1122.051;    6.470;  -12.830;  723.580
1122.592;    5.286;  -14.290;  655.420
1123.133;    4.547;  -12.400;  547.940
1123.673;    6.543;  -10.130;  706.480
1124.214;    6.125;  -12.930;  612.460
1124.755;    7.008;  -14.380;  639.460
1125.296;    6.039;  -14.000;  627.320
1125.836;    6.628;  -10.070;  691.500
1126.377;    4.802;  -12.640;  599.660
1126.918;    6.419;  -12.960;  614.980
1127.458;    4.474;  -13.350;  622.220
1127.999;    5.981;  -10.750;  656.980
1128.539;    5.537;  -12.350;  694.240
1129.079;    5.318;  -14.860;  632.720
1129.620;    4.387;  -13.840;  558.100
1130.160;    4.089;  -12.330;  539.480
1130.700;    5.218;  -14.530;  640.840
1131.240;    6.072;  -12.530;  643.700
1131.781;    4.973;  -14.450;  619.680
1132.321;    4.569;   -9.790;  599.120
1132.861;    2.966;  -14.860;  564.200
1133.401;    2.638;  -14.290;  593.940
1133.941;    4.532;  -11.750;  626.280
1134.481;    3.246;   -9.920;  597.580
1135.020;    3.200;  -12.290;  609.160
1135.560;    4.382;  -11.650;  674.940
1136.100;    3.610;  -16.270;  501.160
1136.640;    3.238;  -10.890;  510.480
1137.179;    3.301;  -14.180;  537.960
1137.719;    3.464;  -16.250;  605.400
1138.258;    3.757;  -14.230;  587.360
1138.798;    4.177;   -9.090;  663.780
1139.337;    2.555;  -15.130;  482.840
1139.877;    3.000;  -13.680;  642.360
1140.416;    4.975;  -11.320;  878.060
1140.955;    2.429;  -10.860;  535.380
1141.494;    2.737;  -12.920;  669.280
1142.034;    3.021;  -13.930;  583.520
1142.573;    3.873;  -11.440;  646.280
1143.112;    2.702;  -12.000;  553.480
1143.651;    2.951;  -13.670;  536.480
1144.190;    3.614;  -12.730;  691.640
1144.729;    2.377;  -14.560;  607.420
1145.267;    2.052;  -11.830;  584.900
1145.806;    3.646;  -12.230;  637.040
1146.345;    2.219;  -14.130;  635.020
1146.884;    2.315;  -11.590;  622.500
1147.422;    1.839;  -12.550;  533.060
1147.961;    3.547;  -11.180;  708.460
1148.500;    3.029;  -11.510;  669.720
1149.038;    2.430;  -11.640;  632.500
1149.577;    2.957;  -10.130;  698.640
1150.115;    0.166;  -13.970;  452.280
1150.653;    2.111;  -14.520;  607.340
1151.192;    1.948;  -12.810;  552.920
1151.730;    1.848;   -9.100;  652.560
1152.268;    0.723;  -12.220;  589.520
1152.806;    1.699;  -14.140;  571.180
1153.344;    0.648;  -12.350;  577.640
1153.882;    1.375;   -8.980;  600.060
1154.421;    0.345;  -15.190;  470.620
1154.958;    0.954;  -15.210;  595.240
1155.496;    2.137;  -12.850;  645.280
1156.034;    0.906;   -9.940;  721.880
1156.572;    2.544;  -13.570;  667.060
1157.110;    0.844;  -14.590;  473.940
1157.647;    1.881;  -13.030;  676.960
1158.185;    0.213;  -12.140;  564.320
1158.723;   -0.380;  -14.390;  509.200
1159.260;    1.004;  -14.090;  701.700
1159.798;    1.171;  -11.920;  658.160
1160.335;   -0.177;  -11.110;  631.820

