
Integration time [ms]:   3.276
Averaging Nr. [scans]: 1000
Smoothing Nr. [pixels]: 0
Data measured with spectrometer [name]: 7414430SP
Wave   ;Sample   ;Dark     ;Reference
[nm]   ;[counts] ;[counts] ;[counts] 

288.544;  150.900;    7.793;  793.890
289.143;  155.734;    7.462;  681.602
289.742;  155.980;    8.602;  828.814
290.341;  140.268;    1.321;  789.841
290.940;  128.997;   -0.709;  730.702
291.538;  131.209;    0.881;  881.108
292.137;  130.673;    0.122;  792.581
292.736;  135.059;   -1.929;  975.101
293.335;  131.105;   -8.229;  735.086
293.934;  131.657;   -5.279;  781.677
294.532;  130.421;   -1.369; 1031.958
295.131;  116.656;   -7.641;  834.394
295.730;  115.675;   -8.420;  809.588
296.328;  116.317;   -5.611;  783.442
296.927;  116.218;   -5.781;  779.652
297.525;  117.227;   -6.361;  781.236
298.124;  107.113;  -11.382;  654.009
298.722;  111.763;   -7.641;  761.933
299.321;  109.399;   -6.811;  708.597
299.919;  107.100;   -6.991;  751.918
300.518;  104.345;  -10.362;  689.338
301.116;  105.526;   -9.581;  691.381
301.715;  105.300;   -4.891;  730.222
302.313;  105.117;   -8.801;  704.943
302.911;   99.536;   -8.522;  733.830
303.509;  105.049;   -6.171;  925.627
304.108;  103.866;   -7.311;  760.383
304.706;  102.203;   -8.321;  801.664
305.304;   96.286;  -10.222;  796.707
305.902;  102.931;   -6.021;  784.484
306.500;   97.715;   -4.971;  728.200
307.098;   96.619;   -7.061;  746.560
307.696;   95.107;   -8.801;  780.432
308.294;   94.846;   -6.411;  731.359
308.892;   97.064;   -2.901;  759.769
309.490;   93.060;   -5.041;  712.161
310.088;   91.293;   -5.002;  788.444
310.686;   95.992;   -2.041;  821.749
311.284;   91.567;   -2.351;  766.040
311.882;   88.829;   -4.422;  731.225
312.480;   86.163;   -4.192;  697.167
313.078;   87.436;   -1.172;  808.331
313.675;   87.894;   -2.601;  691.600
314.273;   83.367;   -1.312;  797.837
314.871;   82.328;   -3.942;  589.829
315.468;   81.587;   -2.802;  652.090
316.066;   83.782;   -0.701;  694.427
316.664;   75.946;   -4.362;  656.351
317.261;   79.908;   -2.872;  910.128
317.859;   76.312;   -2.022;  768.735
318.456;   76.771;   -0.531;  830.096
319.054;   71.796;   -3.912;  787.828
319.651;   71.358;   -4.752;  759.928
320.249;   70.463;   -2.602;  810.188
320.846;   67.743;   -0.821;  714.286
321.443;   66.208;   -4.642;  832.135
322.041;   62.604;   -5.002;  812.315
322.638;   60.864;   -3.982;  701.456
323.235;   62.007;   -3.411;  665.683
323.833;   59.021;   -7.361;  740.354
324.430;   54.606;   -8.611;  615.900
325.027;   54.907;   -4.061;  876.855
325.624;   55.042;   -4.031;  644.532
326.221;   52.155;   -7.481;  689.717
326.818;   51.823;   -5.281;  818.332
327.415;   55.245;   -7.460;  748.828
328.012;   55.044;   -5.510;  690.585
328.609;   52.569;   -7.880;  731.389
329.206;   51.086;   -8.331;  778.621
329.803;   51.308;   -5.121;  737.841
330.400;   54.207;   -4.510;  704.260
330.997;   55.283;   -6.441;  817.147
331.594;   53.674;   -8.831;  788.185
332.191;   59.551;   -7.621;  728.722
332.787;   62.524;   -4.591;  844.463
333.384;   60.328;   -7.412;  763.093
333.981;   58.728;   -8.293;  815.687
334.578;   61.979;   -7.052;  708.378
335.174;   65.517;   -3.102;  731.469
335.771;   64.091;   -5.943;  836.456
336.367;   61.718;   -7.393;  710.631
336.964;   65.474;   -4.063;  793.266
337.561;   62.848;   -3.813;  731.112
338.157;   58.424;   -4.654;  911.916
338.754;   55.865;   -7.934;  796.589
339.350;   54.324;   -4.414;  722.493
339.946;   56.313;   -4.664;  773.135
340.543;   47.835;   -6.375;  846.136
341.139;   42.876;   -9.815;  720.836
341.735;   40.463;   -4.526;  772.593
342.332;   39.688;   -4.895;  691.472
342.928;   39.297;   -4.295;  795.394
343.524;   32.959;   -5.476;  761.684
344.120;   30.264;   -5.856;  738.562
344.716;   34.467;   -2.155;  723.717
345.313;   30.806;   -6.275;  795.342
345.909;   25.881;   -8.815;  627.336
346.505;   27.715;   -5.305;  740.247
347.101;   28.751;   -2.674;  827.864
347.697;   28.956;   -4.344;  785.398
348.293;   23.403;   -9.975;  627.244
348.889;   24.705;   -5.774;  745.914
349.485;   23.834;   -5.004;  688.205
350.081;   24.143;   -4.704;  772.592
350.676;   19.982;   -6.635;  691.606
351.272;   23.355;   -4.504;  809.530
351.868;   23.569;   -3.914;  780.497
352.464;   20.723;   -9.044;  723.932
353.059;   16.470;   -8.314;  646.017
353.655;   21.217;   -7.024;  777.063
354.251;   22.353;   -5.343;  759.845
354.846;   15.183;   -8.604;  740.646
355.442;   13.270;   -6.945;  753.071
356.038;   15.654;   -7.564;  751.708
356.633;   15.632;   -5.814;  728.594
357.229;   13.812;   -7.364;  724.757
357.824;   11.258;   -8.024;  703.600
358.420;   11.604;   -9.384;  679.726
359.015;   12.178;   -5.104;  695.357
359.610;   12.495;   -6.854;  763.920
360.206;    6.316;  -10.185;  603.240
360.801;   10.421;   -7.054;  646.503
361.396;   11.198;   -5.034;  725.975
361.992;    6.640;   -8.284;  668.220
362.587;    4.185;   -8.625;  670.160
363.182;    6.850;   -7.674;  689.631
363.777;    7.269;   -5.164;  738.242
364.372;    7.793;   -8.604;  737.314
364.967;    2.881;   -9.055;  680.744
365.563;    7.758;   -6.114;  815.567
366.158;    5.988;   -5.814;  685.161
366.753;    4.890;   -7.854;  649.263
367.348;    2.857;   -7.804;  746.056
367.942;    4.229;   -7.954;  697.298
368.537;    3.148;   -4.984;  754.245
369.132;    2.755;   -8.564;  703.428
369.727;   -0.894;   -8.855;  638.079
370.322;    1.065;   -6.245;  580.186
370.917;    0.257;   -6.425;  710.646
371.511;    1.787;   -6.294;  861.834
372.106;   -1.058;   -7.685;  776.964
372.701;   -3.019;   -7.335;  585.988
373.296;    2.299;   -4.564;  863.135
373.890;   -3.450;  -10.235;  647.840
374.485;   -5.101;   -7.885;  691.199
375.079;   -0.880;   -7.324;  738.685
375.674;    0.394;   -3.494;  812.970
376.268;   -4.694;   -8.525;  691.759
376.863;  -10.476;  -10.086;  580.327
377.457;   -3.276;   -7.025;  662.490
378.052;   -5.104;   -3.585;  764.884
378.646;   -6.130;   -7.595;  741.167
379.240;   -6.588;   -8.335;  721.176
379.835;   -5.210;   -5.785;  636.978
380.429;   -7.406;   -4.335;  562.557
381.023;   -7.396;   -6.805;  779.205
381.617;  -10.002;   -9.195;  680.106
382.212;   -6.212;   -6.905;  685.303
382.806;   -5.459;   -3.745;  760.690
383.400;  -10.830;   -7.745;  672.281
383.994;  -10.830;   -9.765;  664.870
384.588;   -6.916;   -6.564;  697.701
385.182;   -5.352;   -5.344;  726.624
385.776;   -7.430;   -8.514;  706.875
386.370;  -10.239;   -9.555;  681.968
386.964;   -9.452;   -8.715;  684.155
387.558;   -7.377;   -6.174;  598.360
388.152;  -11.261;   -8.725;  681.959
388.745;   -8.591;   -7.965;  814.707
389.339;   -7.172;   -5.924;  747.642
389.933;   -5.791;   -5.524;  695.370
390.527;   -7.726;   -7.114;  859.029
391.120;  -14.537;  -10.725;  595.318
391.714;  -10.188;   -8.035;  711.633
392.308;   -7.732;   -3.574;  780.253
392.901;  -11.401;   -7.245;  642.460
393.495;  -13.197;   -9.285;  595.414
394.089;  -10.411;   -5.895;  760.452
394.682;  -10.950;   -4.295;  697.188
395.275;  -12.608;   -9.875;  719.927
395.869;  -13.043;   -8.485;  667.314
396.462;  -11.362;   -7.455;  616.609
397.056;   -7.123;   -5.424;  776.621
397.649;  -12.298;   -6.605;  731.575
398.242;  -10.534;   -8.224;  712.645
398.836;   -8.850;   -7.474;  766.408
399.429;   -9.410;   -7.094;  631.041
400.022;  -13.361;   -9.475;  665.902
400.615;  -10.945;   -7.145;  805.609
401.208;   -8.994;   -7.174;  691.451
401.802;  -11.056;   -5.515;  699.329
402.395;  -12.629;   -9.875;  683.502
402.988;  -13.816;   -8.845;  696.627
403.581;   -9.649;   -8.874;  646.878
404.174;   -7.781;   -5.324;  686.568
404.767;  -10.628;   -9.575;  638.583
405.360;  -13.056;  -10.965;  621.445
405.953;   -7.539;   -8.764;  759.034
406.545;   -7.244;   -7.514;  725.342
407.138;  -11.392;  -10.025;  618.350
407.731;  -10.550;  -10.034;  613.303
408.324;   -5.251;   -9.374;  660.554
408.917;   -6.973;   -6.534;  681.864
409.509;   -9.458;   -8.004;  740.396
410.102;  -10.800;   -9.875;  643.948
410.695;   -4.535;   -8.604;  665.758
411.287;   -5.863;   -6.794;  599.821
411.880;   -7.569;   -9.334;  585.421
412.472;  -10.574;  -10.254;  613.092
413.065;   -7.376;   -6.714;  629.408
413.657;   -4.989;   -7.234;  576.678
414.250;   -5.107;  -10.544;  646.681
414.842;   -7.644;   -9.744;  676.353
415.434;   -4.221;   -6.994;  570.463
416.027;   -0.310;   -5.893;  652.196
416.619;   -2.893;   -7.264;  713.400
417.211;   -3.073;  -10.374;  599.352
417.804;    1.207;   -7.993;  628.499
418.396;   -2.656;   -7.234;  607.643
418.988;   -1.524;   -9.443;  659.238
419.580;   -4.545;  -10.724;  568.276
420.172;   -2.461;  -10.323;  536.196
420.764;    2.197;   -8.793;  672.482
421.356;    0.617;  -11.143;  636.898
421.948;   -0.098;   -8.293;  677.661
422.540;    4.970;   -7.893;  680.027
423.132;    4.558;   -7.082;  600.641
423.724;    1.012;   -8.653;  561.267
424.316;    2.351;  -10.213;  621.345
424.908;    6.838;   -9.762;  591.517
425.500;    8.103;   -5.572;  647.978
426.092;    7.653;   -8.422;  648.268
426.683;    5.927;   -9.283;  684.836
427.275;   10.016;   -7.852;  641.471
427.867;   11.411;   -5.272;  668.948
428.458;   12.028;   -7.682;  732.344
429.050;   10.070;  -10.612;  680.749
429.642;   12.820;   -9.882;  743.124
430.233;   13.161;   -6.962;  569.356
430.825;   13.210;   -6.842;  724.809
431.416;   10.776;   -9.672;  698.241
432.008;   15.503;   -6.552;  651.723
432.599;   16.180;   -6.891;  656.073
433.190;   13.456;  -10.912;  637.670
433.782;   12.393;  -11.172;  590.395
434.373;   20.069;   -6.061;  884.765
434.964;   18.746;   -8.251;  602.920
435.556;   16.057;   -9.722;  634.537
436.147;   18.538;   -9.082;  758.490
436.738;   19.201;   -8.041;  701.099
437.329;   24.278;   -7.341;  721.723
437.920;   17.286;   -8.162;  666.688
438.511;   17.111;  -11.802;  564.526
439.103;   24.493;  -10.191;  623.998
439.694;   25.770;   -7.601;  681.583
440.285;   26.279;   -8.541;  764.432
440.876;   24.372;   -9.751;  845.738
441.466;   24.563;   -9.401;  575.162
442.057;   30.086;   -7.760;  665.814
442.648;   28.549;   -9.971;  746.255
443.239;   26.511;  -11.001;  620.477
443.830;   32.214;   -7.990;  704.958
444.421;   33.651;   -7.910;  655.474
445.011;   29.151;   -8.131;  693.619
445.602;   29.487;   -7.111;  743.126
446.193;   31.658;  -10.920;  488.117
446.783;   36.278;   -6.500;  640.397
447.374;   32.066;   -8.671;  692.759
447.964;   31.392;  -10.781;  713.770
448.555;   41.006;   -9.650;  822.742
449.145;   37.715;   -8.660;  662.853
449.736;   38.355;   -8.990;  803.179
450.326;   38.170;   -9.500;  713.626
450.917;   42.783;   -8.680;  675.324
451.507;   42.011;   -7.520;  600.661
452.097;   42.847;   -8.590;  746.267
452.688;   43.901;  -11.340;  742.160
453.278;   43.771;  -10.100;  566.840
453.868;   48.335;   -6.019;  793.550
454.458;   45.809;   -9.440;  651.141
455.048;   46.615;  -10.560;  711.783
455.639;   48.487;  -11.799;  567.096
456.229;   51.717;   -6.899;  710.694
456.819;   53.298;   -7.389;  751.158
457.409;   53.655;  -11.119;  773.993
457.999;   56.416;   -9.289;  737.505
458.589;   56.811;   -6.139;  686.606
459.179;   56.687;   -8.729;  717.658
459.769;   55.279;   -9.789;  627.099
460.358;   59.029;  -10.259;  797.262
460.948;   60.215;   -7.299;  689.503
461.538;   60.892;  -10.289;  660.677
462.128;   58.416;  -11.269;  664.934
462.717;   65.818;   -9.368;  710.326
463.307;   68.876;   -7.908;  705.846
463.897;   65.058;   -9.599;  656.942
464.486;   64.075;   -9.769;  837.128
465.076;   68.860;   -8.048;  733.776
465.666;   72.145;   -9.358;  652.900
466.255;   69.707;   -7.919;  785.651
466.845;   68.600;  -11.689;  666.749
467.434;   72.264;   -7.818;  725.873
468.023;   73.141;   -7.678;  658.357
468.613;   70.172;  -10.939;  713.946
469.202;   74.858;  -10.118;  646.507
469.791;   79.629;   -9.108;  737.811
470.381;   81.328;   -6.058;  742.813
470.970;   80.461;  -10.428;  711.099
471.559;   80.580;  -10.268;  733.291
472.148;   84.404;   -8.448;  675.737
472.738;   86.242;   -6.917;  765.466
473.327;   86.235;  -11.978;  637.529
473.916;   86.241;  -11.888;  737.446
474.505;   90.199;   -9.437;  751.703
475.094;   93.974;   -6.747;  806.570
475.683;   92.965;   -9.367;  797.699
476.272;   93.548;  -12.637;  730.632
476.861;   97.665;  -10.027;  706.754
477.449;  102.829;   -8.716;  728.487
478.038;   97.509;   -9.577;  692.513
478.627;   99.209;   -9.718;  714.852
479.216;  105.197;   -8.947;  769.441
479.805;  108.869;   -6.256;  783.375
480.393;  108.640;   -7.937; 1008.945
480.982;  107.789;   -7.717;  874.501
481.571;  114.843;   -9.266;  858.333
482.159;  114.823;   -7.636;  705.386
482.748;  115.524;   -9.667;  821.385
483.336;  119.613;  -10.376;  858.209
483.925;  119.799;   -7.147;  774.373
484.513;  126.694;   -7.996;  758.962
485.102;  124.310;  -10.027;  810.965
485.690;  132.541;  -10.446; 1011.050
486.278;  134.797;   -8.446;  979.329
486.867;  135.920;   -6.356;  809.662
487.455;  136.616;   -9.136;  898.229
488.043;  138.113;  -10.646;  748.361
488.631;  148.383;   -7.456; 1005.079
489.220;  152.801;   -6.636;  908.626
489.808;  153.031;  -11.036;  741.415
490.396;  161.374;  -10.246;  914.645
490.984;  167.083;   -8.556;  830.161
491.572;  177.819;   -5.886;  940.315
492.160;  183.644;   -9.486;  919.081
492.748;  196.462;  -10.976;  884.341
493.336;  221.305;   -8.776; 1019.693
493.924;  248.516;   -5.465;  958.077
494.512;  278.870;   -9.986; 1066.638
495.100;  317.590;  -10.636; 1103.280
495.687;  377.731;  -10.885; 1206.373
496.275;  444.881;   -8.126; 1150.796
496.863;  520.895;  -10.586; 1281.171
497.451;  625.958;  -11.926; 1386.805
498.038;  768.672;  -10.885; 1556.729
498.626;  885.414;   -6.315; 1741.407
499.214; 1047.013;   -7.326; 2016.609
499.801; 1262.996;  -11.906; 2220.633
500.389; 1517.748;  -10.466; 2312.494
500.976; 1838.245;   -5.236; 2744.849
501.564; 2302.110;   -8.936; 3148.565
502.151; 2677.944;  -13.176; 3515.999
502.738; 3124.721;  -10.646; 3971.274
503.326; 3565.417;   -9.525; 4403.796
503.913; 4008.906;  -10.856; 5161.749
504.500; 4420.976;  -11.586; 5986.420
505.088; 4811.544;  -10.336; 6381.201
505.675; 5384.571;   -6.355; 6925.547
506.262; 6130.657;   -9.046; 7619.060
506.849; 6925.423;  -10.416; 8733.969
507.436; 7502.013;  -10.305; 9790.121
508.023; 8109.420;   -5.496; 9985.472
508.610; 8355.673;   -7.856;10434.618
509.197; 9012.804;  -10.097;11198.435
509.784;10454.835;  -10.886;12391.194
510.371;11696.474;   -9.315;13603.713
510.958;12509.366;   -9.936;14426.586
511.545;13277.293;   -9.326;15243.775
512.132;14167.704;  -10.075;15945.876
512.719;14733.042;   -7.796;16340.369
513.305;15921.759;  -10.606;18011.766
513.892;16705.783;  -11.486;19754.971
514.479;17971.369;   -9.126;20967.805
515.066;19571.430;   -6.026;22299.793
515.652;21365.174;   -8.466;22908.660
516.239;22654.895;  -10.886;23798.875
516.825;23439.291;  -11.496;25567.275
517.412;24503.840;   -5.796;28154.959
517.998;25398.830;  -10.506;28344.111
518.585;25376.979;  -10.076;27134.219
519.171;25983.447;   -8.315;27268.576
519.758;27992.230;   -8.596;28964.129
520.344;30234.875;   -8.466;30664.494
520.930;29877.039;  -11.006;32550.605
521.516;30881.818;  -10.495;35422.895
522.103;32877.953;   -5.526;38280.004
522.689;33535.516;   -8.746;37835.117
523.275;33168.449;  -11.376;37288.613
523.861;34999.852;  -11.156;37281.395
524.447;36905.453;   -8.135;37846.949
525.033;36687.012;   -7.896;38321.949
525.619;36915.637;  -12.476;38579.285
526.205;38443.441;   -9.516;40622.875
526.791;41455.617;   -6.926;42258.836
527.377;41299.898;   -8.346;42966.902
527.963;42197.805;   -8.717;42018.949
528.549;41439.445;  -11.016;42476.828
529.135;40079.234;   -8.536;41854.852
529.721;38983.973;   -9.666;41237.711
530.306;38237.348;  -10.066;41259.445
530.892;38052.379;  -11.356;41506.047
531.478;39243.012;   -6.596;43559.613
532.063;42955.398;   -8.836;47695.563
532.649;44344.879;  -10.047;50808.324
533.235;44723.340;   -9.746;51787.500
533.820;44631.906;   -6.566;52145.035
534.406;45963.305;  -10.817;51133.488
534.991;45903.535;   -9.416;49996.805
535.576;44164.023;   -9.036;48882.852
536.162;45005.855;   -6.156;46942.285
536.747;46291.422;  -11.607;45711.746
537.333;49037.953;  -11.787;48510.180
537.918;52175.742;  -12.437;50439.891
538.503;51855.910;   -7.196;50863.711
539.088;48417.105;  -10.556;50906.922
539.673;48250.699;   -8.767;52621.965
540.259;49062.750;  -10.026;52368.094
540.844;46404.039;   -7.416;50879.109
541.429;48082.055;   -9.467;52077.777
542.014;50298.477;   -9.527;52716.695
542.599;49343.504;   -9.946;52363.281
543.184;46021.688;   -7.927;53187.137
543.769;46821.863;   -9.297;54697.605
544.354;47106.422;  -10.127;53913.914
544.938;45769.496;   -9.267;49680.164
545.523;47559.594;   -6.506;47386.277
546.108;50574.395;   -9.787;49151.949
546.693;52487.488;  -11.587;51384.637
547.278;52791.777;  -10.986;51853.254
547.862;49718.461;   -8.206;51173.750
548.447;44974.668;  -10.067;51691.395
549.031;44106.824;   -9.637;52456.703
549.616;48785.000;   -9.926;52714.516
550.201;48685.457;   -6.347;52414.598
550.785;49869.012;   -7.917;52355.059
551.370;49065.121;  -10.867;54589.453
551.954;48480.352;   -9.047;58267.348
552.538;49471.734;   -7.827;59062.176
553.123;48007.199;  -10.287;58115.285
553.707;45507.871;  -12.178;56556.285
554.291;47098.410;   -8.717;56201.668
554.876;50617.461;   -7.457;55335.762
555.460;50722.168;  -10.387;54155.703
556.044;50434.945;   -9.618;53721.484
556.628;48037.590;  -11.567;53731.016
557.212;46771.793;   -8.097;54312.531
557.796;45792.086;  -11.077;53797.773
558.380;45997.039;  -11.108;56145.984
558.964;45986.879;   -9.057;57277.930
559.548;47076.469;   -6.977;56459.641
560.132;45158.898;  -11.457;54434.543
560.716;43386.223;  -11.378;54800.617
561.300;44538.164;   -9.577;57606.945
561.884;45766.406;   -7.127;58972.445
562.467;43547.336;   -7.118;57327.570
563.051;42647.160;  -13.358;54962.434
563.635;44259.609;  -10.178;52594.473
564.219;45027.094;   -7.837;50610.410
564.802;45670.660;  -11.398;49551.180
565.386;45070.664;  -12.788;48370.953
565.969;44313.430;   -9.077;48178.871
566.553;43165.355;   -6.207;49957.305
567.136;44236.594;   -8.568;50369.594
567.720;41024.863;  -11.868;49492.004
568.303;38925.488;   -8.268;50616.352
568.887;38947.699;   -8.698;50727.148
569.470;39653.523;   -6.808;51698.379
570.053;38827.691;  -13.188;52122.078
570.637;36292.609;  -12.037;52536.438
571.220;35951.707;   -8.577;51186.098
571.803;37026.199;   -8.498;51032.762
572.386;39140.277;  -10.498;49609.887
572.969;41675.699;   -9.388;48285.926
573.552;40216.172;   -8.338;47624.285
574.135;38611.230;   -8.518;45498.641
574.718;35944.469;  -13.628;41970.434
575.301;35253.535;  -10.893;41447.137
575.884;34562.602;   -8.158;40923.836
576.467;35826.840;  -10.328;45267.723
577.050;37293.051;  -13.058;48175.543
577.633;38294.738;   -9.458;47729.328
578.216;37538.551;   -8.928;47579.793
578.799;36665.961;   -9.358;47820.996
579.381;35567.906;  -11.388;48115.551
579.964;33344.605;  -11.718;47333.766
580.547;35678.863;   -8.588;46668.969
581.129;36617.754;   -8.859;44466.141
581.712;37444.938;  -10.729;44164.922
582.294;37784.668;  -11.118;46477.855
582.877;37793.598;   -5.218;48244.254
583.459;36022.602;   -8.679;47437.895
584.042;33842.852;  -10.709;46943.219
584.624;33654.742;  -11.669;46792.227
585.206;33499.078;   -8.218;46557.250
585.789;33830.441;  -10.569;45793.773
586.371;36093.309;  -11.859;43836.391
586.953;36760.027;  -10.719;42972.492
587.536;37754.496;   -7.198;42487.211
588.118;38439.766;   -8.720;42086.414
588.700;34196.137;  -10.439;43389.930
589.282;33057.965;   -9.198;43646.039
589.864;34216.438;   -9.199;43438.109
590.446;35620.164;  -11.319;43151.926
591.028;35477.395;  -11.159;42781.867
591.610;34071.547;  -11.779;42839.098
592.192;31282.629;   -7.668;42820.402
592.774;30018.746;  -11.949;40724.277
593.356;29030.135;  -12.129;39874.789
593.937;27934.543;  -10.669;39980.648
594.519;30224.143;   -6.509;42069.633
595.101;32384.586;  -10.849;42976.031
595.683;32359.127;  -11.679;44084.441
596.264;33094.711;   -9.049;43478.797
596.846;33010.078;   -8.849;43803.672
597.427;32977.324;   -9.570;42986.934
598.009;34192.090;  -12.620;42832.219
598.591;34409.273;  -10.039;42580.086
599.172;34068.980;  -10.369;43061.805
599.753;34274.668;   -9.140;41691.469
600.335;35622.578;  -11.430;40692.520
600.916;33777.121;   -9.939;39982.422
601.498;31623.850;   -8.479;40318.617
602.079;30046.496;  -10.920;40670.609
602.660;29726.746;  -11.480;41450.898
603.241;31528.725;  -11.699;41137.738
603.823;30271.068;   -9.579;38868.797
604.404;29252.467;  -10.620;38182.785
604.985;31058.742;  -10.450;38078.047
605.566;31209.002;   -9.129;38056.633
606.147;31154.861;   -7.510;37020.418
606.728;32647.168;  -10.660;37883.359
607.309;31249.742;  -11.740;38748.273
607.890;31227.998;   -9.759;38850.230
608.471;30779.635;   -8.250;37457.918
609.051;29900.037;   -9.240;36066.457
609.632;28550.340;  -12.120;35991.074
610.213;28743.482;   -9.110;37402.641
610.794;29580.783;   -8.030;38383.363
611.374;29648.676;   -8.110;40562.387
611.955;30655.361;  -13.560;38533.727
612.536;32018.117;  -11.400;36951.789
613.116;31401.244;   -8.070;37197.891
613.697;31654.131;  -10.830;38411.125
614.277;29814.707;  -11.641;38673.938
614.858;30546.703;  -13.310;37075.863
615.438;30267.400;   -7.460;35092.906
616.019;28226.508;   -7.601;33666.301
616.599;28346.893;  -12.020;34189.023
617.179;29929.400;  -11.780;36952.047
617.760;31171.480;   -8.570;39582.574
618.340;31917.969;  -11.471;38943.977
618.920;32698.898;  -11.170;37594.156
619.500;32688.951;  -11.071;37866.938
620.080;31709.740;   -7.750;37869.043
620.660;32760.258;  -12.711;36868.617
621.241;34567.039;  -10.211;36352.309
621.821;35172.789;  -10.961;35459.520
622.401;33958.625;   -7.720;35207.414
622.980;32736.156;   -8.981;35980.422
623.560;31308.379;   -9.331;37351.328
624.140;30001.654;   -9.850;34388.582
624.720;25231.490;   -7.451;32368.764
625.300;21834.535;   -9.070;32638.629
625.880;25218.797;  -12.601;34599.035
626.459;29408.721;  -11.751;36831.738
627.039;32220.498;   -9.281;38299.098
627.619;31959.156;   -8.801;38289.574
628.198;30508.262;  -12.071;37220.695
628.778;29590.252;   -9.461;37632.563
629.357;30194.717;   -8.491;38003.012
629.937;30478.918;   -9.721;38402.039
630.516;30039.543;   -9.951;37868.801
631.096;29766.867;  -11.731;35760.410
631.675;31749.141;   -8.572;35225.219
632.254;36895.523;  -11.282;35130.289
632.834;36616.141;  -13.322;35794.570
633.413;35045.117;  -10.301;35788.922
633.992;32499.184;   -8.582;34532.863
634.571;32913.910;   -8.352;33590.113
635.151;35529.598;  -11.912;34943.863
635.730;34154.641;  -10.511;35352.523
636.309;30916.611;   -7.731;35366.605
636.888;28374.922;   -9.952;36165.637
637.467;28627.215;  -11.672;37515.902
638.046;29992.791;   -8.901;39288.695
638.625;32858.684;   -7.912;38279.699
639.204;32811.984;  -10.022;37741.598
639.782;31766.059;  -12.252;38364.551
640.361;28033.570;  -10.041;36740.621
640.940;25283.369;  -11.161;34950.082
641.519;26069.373;   -9.701;34137.398
642.097;29009.271;  -11.271;35654.258
642.676;31675.213;   -8.651;35637.957
643.255;32966.883;   -8.711;36567.074
643.833;32309.424;   -9.581;37809.434
644.412;32310.266;  -13.711;37337.293
644.990;31258.480;  -11.811;37018.531
645.569;30994.893;   -9.411;36518.469
646.147;30501.447;  -10.291;36186.430
646.726;30745.162;  -12.401;36267.688
647.304;31806.381;  -10.411;36647.625
647.882;32959.367;   -9.651;39286.742
648.461;34425.035;   -9.631;39157.703
649.039;32960.355;  -11.881;35412.883
649.617;31955.170;   -9.661;34744.918
650.195;31096.191;   -9.301;35403.098
650.773;29758.703;  -10.511;35053.797
651.352;27583.959;  -11.521;33756.816
651.930;25312.828;  -12.211;31868.773
652.508;23741.410;   -9.171;33121.551
653.086;27574.633;   -9.371;33564.793
653.663;30789.518;  -13.161;34054.668
654.241;29325.566;  -13.031;35693.309
654.819;30455.637;   -9.371;36422.906
655.397;30272.088;  -10.511;38213.484
655.975;29822.262;  -10.371;39507.625
656.553;29543.088;  -10.051;39498.223
657.130;28100.004;  -10.061;40395.480
657.708;27411.674;   -9.561;39242.020
658.286;27574.910;  -11.511;38920.020
658.863;28814.277;  -10.261;40202.898
659.441;32124.684;   -7.531;39677.938
660.018;32210.090;   -9.501;40413.355
660.596;30787.682;  -13.301;39931.414
661.173;32174.914;  -11.211;39604.531
661.750;32606.578;   -9.951;39700.070
662.328;31500.867;   -9.390;39292.809
662.905;30617.467;  -11.330;38235.648
663.482;26556.293;   -9.050;36212.305
664.060;24646.268;   -8.240;35944.945
664.637;27495.861;  -10.050;35170.785
665.214;28836.508;  -11.760;34197.523
665.791;30415.313;  -10.530;34549.520
666.368;29667.699;   -9.690;35118.578
666.945;30077.430;   -9.320;36019.418
667.522;31611.549;  -11.860;36048.438
668.099;31335.027;  -10.770;36243.914
668.676;29939.115;   -6.260;35958.875
669.253;28681.414;   -7.000;37384.730
669.830;28790.428;  -10.190;36779.629
670.407;28708.811;   -9.550;35231.289
670.984;28697.389;   -9.260;35544.270
671.560;29629.363;   -9.280;35466.867
672.137;28998.979;  -11.810;34280.863
672.714;29953.713;  -11.490;34632.863
673.290;31104.826;   -7.740;35135.422
673.867;31117.385;  -10.660;36114.480
674.443;30928.605;  -12.230;36152.859
675.020;28907.336;  -10.450;35327.238
675.596;29798.162;   -9.260;35795.176
676.173;30456.176;  -10.780;35430.355
676.749;30051.348;  -13.690;33549.516
677.326;29818.750;  -11.980;32210.012
677.902;29648.875;   -8.630;32068.871
678.478;29177.871;  -10.730;32583.891
679.054;28334.135;  -10.520;32088.928
679.631;28624.115;  -11.920;30978.848
680.207;29942.539;   -7.490;33160.887
680.783;31421.748;   -9.860;35570.363
681.359;30612.533;  -13.380;36125.184
681.935;30461.260;  -12.480;35240.922
682.511;30469.660;   -7.900;34429.961
683.087;30838.670;   -7.710;34463.680
683.663;30028.416;  -11.480;34648.898
684.239;28592.145;  -14.090;34546.457
684.815;27863.088;   -7.560;35586.375
685.390;27814.955;   -9.910;35821.895
685.966;28302.246;  -11.159;35085.871
686.542;30710.041;  -11.169;34198.230
687.118;33223.984;   -5.959;32847.707
687.693;33875.613;  -10.329;32794.027
688.269;33538.203;  -12.059;33072.367
688.844;31769.275;  -10.909;33141.664
689.420;29772.119;   -8.019;33965.742
689.995;28074.771;   -8.399;34655.523
690.571;26618.529;  -10.949;33576.742
691.146;26496.432;   -9.619;32657.219
691.722;26368.066;   -8.999;32526.979
692.297;25915.137;  -11.589;33014.617
692.872;27152.047;  -11.739;34012.254
693.448;27055.340;  -11.059;34237.434
694.023;26075.658;  -10.139;34142.672
694.598;27890.891;   -9.029;34132.031
695.173;28628.828;  -13.319;34205.250
695.748;27567.590;  -10.169;32882.488
696.323;27418.215;   -8.339;32864.906
696.898;27655.516;   -8.169;33170.004
697.473;27974.172;  -12.309;32432.984
698.048;27433.635;  -10.989;31649.303
698.623;27106.008;   -9.329;30778.141
699.198;28494.752;   -9.849;31140.119
699.773;29885.471;  -12.329;31764.299
700.348;28670.090;  -10.389;31780.816
700.922;28591.557;   -9.269;32046.375
701.497;29744.709;   -9.329;32603.574
702.072;30092.066;  -10.789;34799.871
702.646;28521.580;  -10.839;35793.172
703.221;26248.289;   -9.099;35201.590
703.795;28048.713;  -10.939;34764.527
704.370;28596.119;  -12.859;34307.367
704.944;28883.885;  -11.559;33509.887
705.519;29490.178;   -7.939;31388.584
706.093;30626.551;  -10.499;31340.104
706.668;30989.396;  -11.289;32630.281
707.242;29871.096;  -11.509;32728.779
707.816;28697.846;   -9.639;32947.238
708.390;27222.430;  -11.429;33277.855
708.965;27665.596;  -11.869;33834.336
709.539;27767.031;  -11.689;33709.273
710.113;27796.266;  -10.478;33044.313
710.687;27212.037;  -10.228;31953.992
711.261;25673.006;  -13.698;30505.949
711.835;25464.004;  -13.378;30262.369
712.409;25818.049;   -9.698;31254.447
712.983;27846.705;  -11.898;32754.986
713.557;29133.172;  -15.138;34018.824
714.131;29077.156;  -14.098;34579.625
714.704;28180.473;   -9.958;33890.262
715.278;25663.494;  -10.028;33531.102
715.852;24435.313;  -11.148;33601.660
716.425;25479.670;   -9.068;33515.117
716.999;26574.299;  -10.038;33185.555
717.573;27365.896;   -9.798;33905.996
718.146;28330.609;  -12.378;35199.293
718.720;28476.527;  -11.918;35060.551
719.293;28456.576;   -8.088;34973.230
719.867;31441.096;  -10.888;36394.449
720.440;31275.498;  -11.938;36663.008
721.013;29502.564;  -12.818;35102.426
721.587;27898.168;  -10.298;33985.266
722.160;26619.242;  -10.048;33524.965
722.733;25579.434;  -12.108;32987.043
723.306;25796.645;  -10.818;33066.301
723.880;27909.719;   -8.908;33399.500
724.453;30250.094;   -9.878;33468.297
725.026;29675.260;  -11.188;33816.637
725.599;26819.889;  -11.678;32797.996
726.172;26574.957;   -9.618;33187.434
726.745;27548.949;   -8.258;35136.613
727.318;28769.008;  -12.978;35751.730
727.891;29564.502;  -12.148;35890.430
728.463;29117.832;   -8.968;34822.090
729.036;27708.201;  -10.188;32895.086
729.609;28189.195;  -11.788;31823.225
730.182;25469.195;  -11.788;31445.283
730.754;23197.859;  -10.268;32373.223
731.327;23669.832;   -9.998;33676.820
731.900;24104.650;  -12.228;33417.000
732.472;24665.588;  -13.848;31978.498
733.045;26057.221;   -8.698;30368.777
733.617;26138.066;  -10.607;30574.215
734.190;26530.641;  -11.507;31280.975
734.762;24363.115;  -13.647;31674.412
735.334;22502.824;   -9.767;31247.291
735.907;22880.785;   -9.897;29876.211
736.479;23115.920;  -11.637;29808.488
737.051;22688.088;   -9.567;30233.547
737.623;23194.100;   -8.187;31469.086
738.195;23473.834;  -11.187;31784.225
738.768;25408.482;  -12.337;32120.523
739.340;26442.523;  -12.227;32094.342
739.912;25683.684;  -11.057;31312.680
740.484;24252.852;  -10.207;31946.238
741.056;22600.896;  -10.047;32984.059
741.628;23598.178;  -13.627;33897.715
742.199;25620.070;   -7.177;33213.016
742.771;24510.252;  -10.797;31369.113
743.343;22568.404;  -11.997;31865.473
743.915;21627.576;  -12.867;32388.631
744.487;21533.934;   -7.617;31079.568
745.058;21569.285;   -9.557;30570.107
745.630;22177.012;   -9.877;29970.127
746.201;23547.648;  -14.177;29186.766
746.773;24406.084;   -9.237;28805.723
747.344;24199.020;   -9.847;29591.223
747.916;22350.201;  -11.657;31412.201
748.487;22307.215;  -10.587;32194.898
749.059;23657.436;   -8.707;32533.719
749.630;24390.270;  -10.537;32158.518
750.201;23466.492;  -11.687;30855.395
750.773;21752.223;  -11.647;28622.555
751.344;21351.576;   -7.147;28405.732
751.915;22188.631;   -9.757;28461.551
752.486;22445.570;  -12.427;27842.850
753.057;20598.602;  -12.227;27845.008
753.628;19370.137;  -10.417;27728.107
754.199;20166.021;  -11.767;27381.086
754.770;21172.010;  -11.187;25882.203
755.341;21416.852;  -10.507;25886.184
755.912;21627.973;   -9.387;26050.861
756.483;21179.752;  -10.647;26798.779
757.054;19475.863;  -11.837;27048.238
757.625;18067.592;  -12.716;26294.838
758.195;17774.240;   -9.666;26142.076
758.766;17414.105;   -8.656;26392.234
759.337;17967.402;  -12.856;26334.594
759.907;19367.205;  -13.366;27579.652
760.478;20272.434;   -8.576;28352.770
761.048;19830.232;  -10.526;27325.088
761.619;18876.127;  -11.116;26460.428
762.189;18923.977;  -12.136;26029.826
762.760;19931.045;   -9.456;26430.145
763.330;21108.250;   -7.136;26670.902
763.900;20760.365;  -11.786;26603.021
764.471;18388.443;  -11.546;25542.740
765.041;16984.883;   -8.096;24358.459
765.611;16735.830;   -8.876;23991.297
766.181;16958.877;  -12.196;24470.236
766.751;18131.754;  -11.636;24845.975
767.321;18038.518;  -10.156;24533.633
767.891;16050.771;  -11.766;24916.492
768.461;15356.671;  -14.936;24776.771
769.031;15741.630;  -12.356;24757.988
769.601;17431.145;   -7.526;24181.088
770.171;17642.484;  -10.766;23670.387
770.741;16707.344;  -13.176;22960.045
771.311;16641.020;  -10.616;22917.523
771.880;17270.826;   -9.576;23562.941
772.450;17299.004;  -10.336;24216.500
773.020;17228.684;  -13.516;24140.398
773.589;16322.744;  -13.466;24414.857
774.159;15579.333;   -8.686;23858.717
774.729;15207.191;   -9.476;22942.135
775.298;14897.082;  -13.666;22324.033
775.867;14476.775;  -11.716;21140.313
776.437;14673.348;   -9.906;20838.092
777.006;14456.504;  -12.166;20599.510
777.576;14038.194;  -12.356;20508.809
778.145;13955.654;  -11.646;20732.947
778.714;14072.886;   -8.226;21062.465
779.283;13639.205;   -9.556;20949.664
779.853;13141.999;  -14.116;20508.623
780.422;13531.030;  -11.506;20649.082
780.991;13101.080;   -9.556;21527.520
781.560;11811.636;   -9.095;22632.658
782.129;11589.538;  -12.135;23048.277
782.698;11585.018;  -10.865;23438.555
783.267;11236.557;   -9.335;23267.734
783.836;11148.579;  -11.045;22415.133
784.404;12093.237;  -13.865;20443.152
784.973;12801.335;  -13.095;19699.150
785.542;12877.845;  -11.575;19763.828
786.111;12648.669;   -9.705;20341.408
786.679;12192.919;  -12.105;20207.967
787.248;11927.955;  -12.455;19516.465
787.817;11731.141;  -11.535;18900.363
788.385;11444.514;   -9.765;17879.121
788.954;10933.078;  -14.005;17658.301
789.522;10268.986;  -11.955;17788.879
790.090;10570.559;  -10.135;18118.277
790.659;11164.190;  -10.975;18338.736
791.227;10861.189;  -13.375;18508.615
791.795;11257.360;  -12.375;17898.254
792.364;11559.564;  -10.725;17295.133
792.932;11876.966;   -9.715;16822.051
793.500;12151.386;  -12.675;17040.148
794.068;12343.316;  -13.495;17179.787
794.636;12508.987;  -10.885;16664.246
795.204;11830.510;  -11.045;16524.545
795.772;11774.634;  -13.175;17274.564
796.340;11315.050;  -12.445;17891.002
796.908;11074.508;   -9.735;17648.561
797.476;10951.664;   -9.815;17064.080
798.044;10561.023;  -13.985;16672.777
798.612; 9837.773;  -13.115;17023.996
799.180; 9478.408;  -10.185;16561.615
799.747; 9334.107;   -9.055;15962.773
800.315; 9032.825;  -12.385;15296.992
800.883; 8843.364;  -15.035;14801.771
801.450; 9053.106;  -10.365;14534.430
802.018; 9167.577;   -9.855;14173.248
802.585; 9164.760;  -11.905;14029.547
803.153; 9136.317;  -11.585;13836.846
803.720; 8960.810;   -9.095;13567.324
804.287; 8466.214;   -9.135;13360.622
804.855; 7962.986;  -11.604;13681.981
805.422; 7845.915;  -11.794;13536.560
805.989; 7948.294;  -10.734;13355.958
806.556; 8148.624;  -10.444;13747.896
807.124; 8412.530;  -12.764;13987.376
807.691; 8361.044;  -12.964;14038.674
808.258; 8175.328;  -11.134;14120.152
808.825; 7853.182;   -9.854;13860.111
809.392; 7951.158;  -10.504;13268.790
809.959; 7504.177;  -13.054;12680.389
810.526; 7028.404;   -8.294;12427.308
811.093; 6989.034;   -8.394;12030.105
811.659; 7609.270;  -12.304;11653.664
812.226; 8210.417;  -13.944;11637.183
812.793; 7980.714;  -10.484;11611.521
813.360; 7330.092;  -10.144;11885.181
813.926; 6983.552;  -11.684;12770.539
814.493; 6784.290;  -13.644;12677.638
815.060; 6418.043;   -9.724;11974.336
815.626; 6335.478;   -9.854;11594.715
816.193; 6682.948;  -13.254;11579.474
816.759; 6734.234;  -13.204;11666.972
817.325; 6758.647;   -9.434;11325.530
817.892; 7102.271;  -10.134;11105.369
818.458; 7527.237;  -13.474;10843.928
819.024; 7194.739;  -11.854;10714.406
819.591; 6901.361;  -10.244;10469.165
820.157; 6713.944;  -10.704;10235.523
820.723; 6214.046;  -12.324;10847.563
821.289; 5897.804;   -9.444;11040.980
821.855; 5836.729;   -8.374;10357.100
822.421; 5828.529;  -10.234; 9978.918
822.987; 5812.749;  -13.294; 9754.177
823.553; 5425.609;  -10.884;10065.755
824.119; 5198.221;   -8.884;10036.294
824.685; 5325.550;   -6.784;10029.192
825.251; 5467.464;  -12.004;10199.230
825.816; 5425.571;  -11.474; 9820.189
826.382; 5139.520;   -9.174; 9297.248
826.948; 5251.204;   -9.214; 9381.347
827.513; 5648.504;  -10.774; 9450.726
828.079; 5544.326;  -11.924; 9472.444
828.645; 4953.691;  -10.543; 9292.643
829.210; 4746.987;  -10.533; 9065.341
829.776; 4709.825;  -10.753; 9132.620
830.341; 4602.294;  -10.173; 9092.878
830.906; 4735.018;  -10.743; 9078.557
831.472; 5065.404;  -11.113; 8534.535
832.037; 4909.629;  -10.603; 8677.874
832.602; 4430.627;  -13.323; 8628.692
833.167; 4186.706;  -10.823; 8879.031
833.733; 4134.884;  -10.113; 9189.790
834.298; 4276.550;  -13.583; 9052.608
834.863; 4416.816;  -12.703; 8895.087
835.428; 4431.927;  -10.523; 8824.266
835.993; 4264.274;   -6.963; 8845.385
836.558; 4070.019;  -10.763; 8888.563
837.123; 4135.923;   -9.903; 8966.582
837.688; 4385.584;   -9.913; 8617.860
838.253; 4656.830;  -10.283; 8590.699
838.817; 4850.006;  -12.963; 8443.797
839.382; 4775.117;  -14.243; 8799.356
839.947; 4472.275;  -10.733; 8810.595
840.511; 4178.377;   -9.383; 8796.394
841.076; 3811.919;  -12.563; 8347.231
841.641; 3851.201;  -12.953; 8224.330
842.205; 3957.208;   -7.043; 8223.349
842.770; 3979.577;   -8.163; 8622.107
843.334; 4093.856;  -12.503; 8410.386
843.898; 4046.778;  -11.693; 8337.465
844.463; 4041.126;  -10.203; 8506.283
845.027; 3840.489;   -9.533; 8280.962
845.591; 3661.540;  -13.443; 8231.141
846.156; 3670.589;  -13.143; 7969.179
846.720; 3599.742;   -9.433; 7768.278
847.284; 3505.681;  -11.033; 7630.957
847.848; 3376.814;  -10.403; 7472.395
848.412; 3283.808;  -11.553; 7437.394
848.976; 3315.971;   -8.393; 7674.592
849.540; 3229.332;   -8.713; 7836.011
850.104; 3266.007;  -12.463; 7913.669
850.668; 3608.286;  -12.973; 7694.508
851.232; 3781.636;  -10.793; 7756.887
851.796; 3655.235;  -10.662; 7926.545
852.359; 3342.711;  -13.082; 7827.844
852.923; 3164.189;  -12.192; 7641.163
853.487; 3034.641;  -11.912; 7342.501
854.050; 3017.813;  -10.892; 7042.820
854.614; 3145.090;  -13.992; 7151.338
855.177; 3250.018;  -11.732; 7105.077
855.741; 3283.337;   -8.962; 6989.675
856.304; 3180.384;   -9.442; 6596.634
856.868; 3157.348;  -14.192; 6356.272
857.431; 3278.739;  -12.702; 6468.571
857.995; 3414.523;   -9.942; 6373.210
858.558; 3450.033;   -9.112; 6324.448
859.121; 3194.974;  -12.932; 6408.327
859.684; 3011.080;  -13.442; 6347.886
860.247; 3104.490;  -10.632; 6321.264
860.810; 3144.621;  -11.272; 6301.903
861.374; 2908.568;   -9.832; 6607.881
861.937; 2648.984;  -11.762; 6408.200
862.500; 2645.966;   -9.722; 6572.639
863.062; 2782.510;  -10.512; 6387.297
863.625; 2905.575;  -11.232; 6190.836
864.188; 3061.416;  -14.112; 5807.254
864.751; 3146.947;  -11.302; 5682.413
865.314; 3078.376;  -10.112; 5547.492
865.876; 2855.202;  -12.182; 5500.150
866.439; 2809.253;  -10.722; 5415.909
867.002; 2775.128;   -9.252; 5501.567
867.564; 2604.133;   -9.572; 5413.946
868.127; 2400.708;  -13.142; 5160.325
868.689; 2278.456;  -12.902; 5133.183
869.252; 2178.167;   -9.732; 5252.382
869.814; 2074.263;   -9.432; 5297.141
870.377; 2071.904;  -11.552; 5390.919
870.939; 2129.434;   -9.052; 5599.898
871.501; 2205.743;  -10.982; 5248.336
872.063; 2231.195;  -12.292; 4854.235
872.626; 2175.024;  -14.912; 4817.074
873.188; 2160.686;  -13.112; 4987.732
873.750; 2131.453;  -13.442; 4868.651
874.312; 2051.428;   -9.402; 4779.330
874.874; 1971.525;  -11.062; 4866.348
875.436; 1888.243;  -13.931; 4718.887
875.998; 1880.733;   -9.561; 4660.005
876.560; 1908.107;  -11.321; 4462.964
877.122; 1852.725;  -12.221; 4145.042
877.683; 1749.908;  -12.191; 4056.481
878.245; 1671.634;  -12.101; 3950.740
878.807; 1706.968;   -8.971; 4058.958
879.369; 1730.506;  -12.071; 3954.677
879.930; 1642.446;  -14.621; 3941.495
880.492; 1575.429;  -10.311; 4067.014
881.053; 1549.449;  -10.901; 3859.633
881.615; 1460.960;  -14.411; 3776.071
882.176; 1365.052;  -13.761; 3734.750
882.738; 1309.443;   -9.181; 3678.489
883.299; 1284.186;  -11.791; 3405.407
883.860; 1267.909;  -13.121; 3351.106
884.422; 1256.101;  -11.211; 3394.044
884.983; 1218.482;  -10.091; 3166.443
885.544; 1154.634;   -8.461; 3189.802
886.105; 1080.872;  -12.361; 3160.360
886.666; 1016.221;  -14.141; 3093.059
887.227;  958.843;  -11.361; 2941.957
887.788;  900.270;  -11.401; 2974.836
888.349;  833.275;  -13.791; 2721.214
888.910;  823.770;  -13.191; 2696.493
889.471;  830.299;   -9.881; 2560.172
890.032;  814.454;   -9.881; 2558.190
890.593;  786.927;  -10.371; 2567.669
891.153;  761.496;  -13.301; 2460.307
891.714;  717.412;  -11.431; 2372.046
892.275;  682.977;  -11.291; 2309.505
892.835;  651.788;  -11.471; 2382.543
893.396;  602.098;  -11.541; 2295.502
893.956;  547.439;  -11.181; 2162.420
894.517;  505.969;  -11.741; 2125.439
895.077;  496.958;  -11.671; 2086.978
895.638;  497.999;  -11.311; 2126.316
896.198;  473.921;   -9.831; 1838.275
896.758;  433.059;   -8.421; 1892.813
897.319;  401.972;  -12.351; 1792.232
897.879;  386.841;  -13.511; 1762.751
898.439;  364.687;  -12.001; 1661.149
898.999;  339.909;  -10.180; 1781.468
899.559;  328.480;  -12.030; 1703.347
900.119;  324.691;  -15.710; 1537.525
900.679;  321.464;   -8.900; 1638.384
901.239;  307.639;   -8.340; 1527.902
901.799;  297.831;  -13.910; 1456.441
902.359;  290.736;  -13.460; 1357.140
902.919;  285.002;  -11.490; 1331.118
903.479;  273.210;  -12.110; 1317.257
904.038;  252.925;  -11.720; 1262.595
904.598;  239.168;  -13.610; 1152.034
905.158;  235.282;  -11.040; 1240.893
905.717;  230.891;  -10.900; 1233.691
906.277;  219.357;  -15.080; 1217.330
906.836;  209.442;  -13.380; 1222.408
907.396;  202.184;  -10.780; 1193.047
907.955;  194.428;   -8.500; 1182.526
908.515;  188.806;  -12.760; 1099.364
909.074;  182.553;  -11.900; 1092.863
909.633;  177.748;   -8.950; 1069.121
910.192;  173.689;   -8.770; 1196.460
910.752;  167.807;  -12.390; 1029.960
911.311;  163.553;  -13.680; 1009.780
911.870;  161.101;  -12.370;  971.460
912.429;  162.022;  -10.900; 1094.080
912.988;  161.034;  -11.690; 1081.060
913.547;  156.062;  -13.240;  940.380
914.106;  152.958;  -11.990;  999.420
914.665;  149.354;   -9.990;  984.020
915.224;  148.051;  -12.880; 1035.760
915.782;  148.568;  -12.350;  922.560
916.341;  148.093;   -9.110; 1049.840
916.900;  143.976;   -9.270;  925.260
917.458;  141.890;  -13.240;  884.220
918.017;  141.421;  -13.550;  942.600
918.576;  141.848;  -12.320;  904.440
919.134;  138.716;  -11.490;  837.980
919.693;  137.567;  -13.670;  893.060
920.251;  136.029;  -15.470;  876.500
920.809;  135.059;  -11.290;  839.580
921.368;  135.221;  -10.210;  885.360
921.926;  133.464;  -12.140;  842.940
922.484;  132.717;  -13.080;  903.360
923.042;  132.424;  -11.720;  880.340
923.601;  135.644;   -7.480;  998.680
924.159;  133.162;  -11.570;  935.560
924.717;  130.349;  -13.840;  841.080
925.275;  129.945;  -10.640;  903.240
925.833;  130.103;  -11.540;  779.320
926.391;  130.204;  -12.960;  938.380
926.949;  128.414;  -14.130;  857.680
927.506;  129.567;  -11.750;  903.500
928.064;  129.974;  -10.250;  877.580
928.622;  128.235;  -13.030;  880.100
929.180;  127.943;  -13.400;  814.180
929.737;  128.972;  -10.700;  808.540
930.295;  131.656;  -10.070;  928.480
930.853;  133.900;  -11.960;  849.100
931.410;  133.832;  -13.120;  821.120
931.968;  134.888;  -10.770;  940.660
932.525;  134.031;  -10.680;  909.380
933.082;  134.497;  -13.130;  811.440
933.640;  135.342;  -13.210;  925.900
934.197;  133.083;  -11.060;  886.360
934.754;  134.624;   -9.580;  897.780
935.312;  137.737;  -14.000;  863.340
935.869;  141.628;  -10.710; 1012.980
936.426;  142.039;   -9.860;  872.800
936.983;  142.963;   -9.710;  889.020
937.540;  142.301;  -13.990;  838.280
938.097;  141.795;  -14.040;  940.120
938.654;  142.285;  -10.310;  898.860
939.211;  144.033;  -10.560;  952.480
939.768;  146.828;  -13.900;  915.420
940.324;  150.514;  -14.760;  904.200
940.881;  152.949;  -10.370;  878.500
941.438;  153.876;   -8.260; 1021.200
941.995;  149.392;  -12.540;  992.560
942.551;  147.067;  -14.670;  875.620
943.108;  147.021;  -10.450;  937.920
943.664;  148.644;  -10.750;  869.340
944.221;  151.868;  -11.550; 1088.140
944.777;  148.635;  -14.770;  869.680
945.334;  149.503;  -12.820;  884.840
945.890;  151.062;  -10.130;  946.480
946.446;  151.310;  -13.470;  947.020
947.003;  153.251;  -12.120;  964.940
947.559;  156.129;   -9.980; 1063.040
948.115;  156.057;   -9.080; 1026.540
948.671;  153.537;  -10.830;  967.300
949.227;  150.298;  -12.440;  859.560
949.783;  149.357;  -12.910;  858.900
950.339;  150.974;  -10.270;  991.000
950.895;  150.820;  -13.630; 1023.840
951.451;  150.292;  -15.100;  925.280
952.007;  149.849;  -11.330;  998.540
952.563;  148.507;  -10.580;  937.780
953.118;  146.398;  -13.440;  904.940
953.674;  146.332;  -12.710;  935.780
954.230;  146.840;  -10.350;  949.640
954.785;  144.866;   -9.190;  936.640
955.341;  142.801;  -11.200;  998.160
955.897;  141.046;  -16.560;  834.660
956.452;  143.355;  -12.570;  953.840
957.008;  142.286;   -7.970; 1083.640
957.563;  139.733;  -11.940; 1009.540
958.118;  134.930;  -13.450;  877.700
958.674;  135.147;  -12.030;  946.780
959.229;  136.688;   -9.410; 1013.980
959.784;  134.675;  -12.000;  832.400
960.339;  132.535;  -14.780; 1001.280
960.894;  130.486;   -9.860;  963.760
961.449;  126.641;   -9.970;  859.960
962.004;  126.466;  -10.900; 1212.840
962.559;  120.467;  -13.150;  860.140
963.114;  119.130;  -13.740;  742.480
963.669;  117.851;   -9.820;  915.500
964.224;  116.105;  -13.890;  874.340
964.779;  115.237;  -12.600;  828.420
965.334;  116.338;  -10.950; 1017.860
965.888;  115.647;  -11.170;  875.360
966.443;  118.637;  -12.540;  972.380
966.998;  118.060;  -15.780;  819.460
967.552;  117.643;   -9.760;  908.380
968.107;  113.708;   -9.060;  868.300
968.661;  115.379;  -11.950;  922.440
969.216;  114.969;  -12.800;  856.280
969.770;  115.085;  -11.210;  917.200
970.324;  114.211;  -11.610;  923.140
970.879;  110.657;  -11.370;  947.180
971.433;  107.707;  -12.540;  952.720
971.987;  102.865;  -11.320;  895.340
972.541;  100.654;  -10.720;  917.100
973.095;  100.378;   -9.680; 1009.460
973.649;   98.158;  -11.440;  809.480
974.203;   97.375;  -11.210;  829.040
974.757;   97.499;  -10.240;  855.220
975.311;   97.209;  -13.720;  872.600
975.865;   96.903;  -13.770;  881.820
976.419;   95.938;  -11.690;  857.400
976.973;   95.427;   -9.510;  849.620
977.526;   96.561;  -12.620;  949.920
978.080;   95.854;  -12.010;  796.780
978.634;   97.082;  -10.170;  921.320
979.187;   94.918;   -9.020;  905.400
979.741;   92.982;   -9.820; 1018.380
980.294;   88.201;  -14.870;  789.160
980.848;   86.029;  -12.380;  717.220
981.401;   88.316;  -10.350;  816.540
981.955;   89.871;  -13.720;  844.300
982.508;   89.160;  -11.490;  746.340
983.061;   89.886;  -10.000;  915.260
983.615;   86.378;  -11.480;  798.800
984.168;   82.446;  -13.220;  770.080
984.721;   82.117;  -13.960;  880.760
985.274;   81.761;  -10.870;  867.500
985.827;   79.559;   -9.790;  834.220
986.380;   78.559;  -13.120;  721.340
986.933;   77.093;  -12.450;  864.800
987.486;   76.017;  -10.210;  861.920
988.039;   74.790;   -8.430;  863.100
988.591;   72.701;  -10.520;  893.260
989.144;   70.366;  -14.860;  737.260
989.697;   70.008;  -13.080;  758.740
990.250;   70.030;  -10.150;  858.100
990.802;   69.165;  -13.430;  755.860
991.355;   69.633;  -12.750;  974.880
991.907;   67.518;  -12.040;  864.320
992.460;   65.403;  -11.330;  753.760
993.012;   64.409;  -13.610;  749.540
993.565;   63.294;  -13.460;  711.360
994.117;   65.318;   -9.360;  950.780
994.669;   62.261;  -11.300;  701.320
995.221;   60.646;  -13.540;  791.920
995.774;   58.643;  -13.430;  787.580
996.326;   56.788;  -12.520;  740.220
996.878;   56.687;  -10.950;  838.420
997.430;   54.635;  -14.300;  699.860
997.982;   54.071;  -13.760;  750.140
998.534;   54.462;  -11.530;  739.060
999.086;   52.632;  -10.310;  738.220
999.638;   51.068;  -12.530;  661.380
1000.190;   50.521;  -11.840;  699.320
1000.741;   50.140;  -10.260;  742.700
1001.293;   49.539;   -8.860;  686.020
1001.845;   47.850;  -13.700;  676.640
1002.396;   48.643;  -12.100;  743.400
1002.948;   48.519;  -12.760;  737.400
1003.500;   46.875;  -10.380;  723.780
1004.051;   47.242;  -11.900;  907.580
1004.603;   45.584;  -12.250;  791.820
1005.154;   41.756;  -13.210;  608.980
1005.705;   41.220;  -10.950;  723.960
1006.257;   41.003;  -13.880;  707.220
1006.808;   39.280;  -12.840;  685.460
1007.359;   39.970;  -10.570;  763.240
1007.910;   38.355;   -9.620;  646.640
1008.461;   37.809;  -13.630;  732.940
1009.013;   37.191;  -17.200;  588.340
1009.564;   37.884;  -10.200;  793.520
1010.115;   36.497;  -12.570;  597.040
1010.665;   35.871;  -15.150;  602.160
1011.216;   36.127;  -14.480;  667.920
1011.767;   36.195;  -11.340;  697.920
1012.318;   35.359;   -9.780;  736.980
1012.869;   34.246;  -12.380;  679.000
1013.419;   33.959;  -15.560;  603.120
1013.970;   34.105;  -11.010;  666.640
1014.521;   34.139;  -11.610;  620.620
1015.071;   34.710;  -13.450;  670.380
1015.622;   32.637;  -13.870;  635.460
1016.172;   33.127;  -11.610;  596.820
1016.723;   32.677;  -12.120;  614.380
1017.273;   31.709;  -13.620;  604.160
1017.823;   32.076;  -14.140;  650.340
1018.374;   32.415;  -12.800;  611.760
1018.924;   31.916;  -12.340;  716.880
1019.474;   31.938;  -11.410;  718.880
1020.024;   30.482;  -14.770;  657.580
1020.574;   31.541;   -9.780;  726.160
1021.124;   31.559;   -8.560;  673.580
1021.674;   29.811;  -15.190;  559.120
1022.224;   31.288;  -13.530;  708.940
1022.774;   31.090;  -13.280;  668.820
1023.324;   31.755;  -10.690;  753.520
1023.874;   31.772;  -10.240;  875.760
1024.423;   29.352;  -12.540;  613.700
1024.973;   29.715;  -10.010;  610.760
1025.523;   28.562;  -10.550;  620.960
1026.072;   28.788;  -13.560;  606.420
1026.622;   27.955;  -15.120;  675.740
1027.172;   30.055;  -11.260;  715.660
1027.721;   28.638;  -11.410;  601.220
1028.270;   29.048;  -13.530;  663.400
1028.820;   27.847;  -13.680;  638.080
1029.369;   27.712;  -13.520;  612.700
1029.918;   28.309;  -10.980;  649.840
1030.468;   27.418;  -13.530;  564.780
1031.017;   27.417;  -13.170;  634.800
1031.566;   26.644;  -12.200;  608.900
1032.115;   27.299;   -9.960;  694.500
1032.664;   25.799;  -13.210;  596.480
1033.213;   27.129;  -12.500;  735.420
1033.762;   26.903;  -11.910;  635.620
1034.311;   26.413;   -9.640;  677.220
1034.860;   26.653;  -13.310;  691.000
1035.408;   26.492;  -11.830;  722.720
1035.957;   26.664;  -12.000;  719.540
1036.506;   24.850;  -11.690;  530.800
1037.055;   27.090;  -10.990;  844.320
1037.603;   25.670;  -15.120;  664.000
1038.152;   23.318;  -12.450;  534.760
1038.700;   24.726;  -10.560;  585.740
1039.249;   23.713;  -11.080;  681.220
1039.797;   24.288;  -12.540;  633.360
1040.345;   24.247;  -11.920;  705.420
1040.894;   24.026;  -11.410;  625.300
1041.442;   22.990;  -14.320;  632.200
1041.990;   22.523;  -16.240;  559.160
1042.538;   22.741;  -11.680;  536.180
1043.087;   22.573;  -10.760;  570.860
1043.635;   23.949;  -11.850;  670.500
1044.183;   22.231;  -15.480;  586.400
1044.731;   22.488;  -11.770;  576.000
1045.279;   22.569;  -13.090;  674.920
1045.827;   23.968;  -12.440;  892.400
1046.374;   21.340;  -13.840;  515.420
1046.922;   21.038;  -13.220;  590.580
1047.470;   22.807;  -10.230;  691.300
1048.018;   21.985;  -14.590;  647.960
1048.565;   22.951;  -12.050;  708.600
1049.113;   21.238;  -11.650;  557.000
1049.660;   21.294;  -10.510;  629.660
1050.208;   21.434;  -13.310;  675.640
1050.755;   20.292;  -15.900;  606.580
1051.303;   21.751;  -11.430;  686.820
1051.850;   20.428;   -8.480;  635.120
1052.397;   18.953;  -15.010;  473.960
1052.945;   19.537;  -13.960;  617.760
1053.492;   21.216;  -13.150;  741.840
1054.039;   21.818;   -9.630;  720.180
1054.586;   19.615;  -13.680;  557.240
1055.133;   20.139;  -14.570;  693.140
1055.680;   20.798;  -13.820;  646.620
1056.227;   19.744;  -11.730;  542.780
1056.774;   20.357;  -12.480;  794.980
1057.321;   18.842;  -13.930;  523.260
1057.868;   18.675;  -11.690;  651.320
1058.415;   18.640;   -9.520;  651.980
1058.961;   19.193;  -13.160;  678.940
1059.508;   18.763;  -12.920;  643.820
1060.055;   18.929;  -11.920;  581.780
1060.601;   18.937;  -11.500;  624.300
1061.148;   18.507;  -14.330;  616.820
1061.694;   17.233;  -16.870;  592.580
1062.241;   18.489;  -10.330;  596.320
1062.787;   18.186;  -10.620;  663.140
1063.334;   19.761;  -10.110;  808.560
1063.880;   18.332;  -13.400;  668.360
1064.426;   18.381;  -10.680;  706.820
1064.972;   16.676;   -9.920;  601.340
1065.518;   15.884;  -10.980;  566.640
1066.065;   17.525;  -14.890;  624.460
1066.611;   17.150;  -12.870;  598.800
1067.157;   17.263;  -12.950;  641.860
1067.703;   16.676;  -13.540;  668.480
1068.249;   16.523;  -13.540;  605.220
1068.794;   16.542;  -12.600;  626.880
1069.340;   15.614;  -10.620;  578.960
1069.886;   16.491;  -12.830;  590.700
1070.432;   15.279;  -14.870;  541.720
1070.977;   15.455;  -11.980;  601.080
1071.523;   16.230;   -8.200;  573.060
1072.068;   16.067;  -12.330;  582.000
1072.614;   14.614;  -16.370;  527.760
1073.160;   16.580;  -11.100;  687.040
1073.705;   14.994;  -10.480;  572.520
1074.250;   15.318;  -14.520;  559.900
1074.796;   16.379;  -11.460;  655.160
1075.341;   15.798;  -11.950;  664.100
1075.886;   15.257;  -11.460;  594.240
1076.431;   15.111;  -13.770;  649.880
1076.976;   14.101;  -12.680;  639.220
1077.521;   14.008;  -13.170;  583.080
1078.067;   13.680;  -10.860;  579.400
1078.612;   14.212;  -13.920;  661.620
1079.156;   14.063;  -13.880;  601.540
1079.701;   14.883;  -13.120;  693.260
1080.246;   14.681;   -9.940;  696.300
1080.791;   13.883;  -14.740;  625.020
1081.336;   13.932;  -13.750;  659.320
1081.880;   13.980;  -13.400;  649.680
1082.425;   13.527;  -12.220;  573.480
1082.970;   14.297;  -11.610;  717.040
1083.514;   13.069;  -13.580;  597.000
1084.059;   12.696;  -12.810;  586.720
1084.603;   11.911;  -12.320;  565.840
1085.147;   13.438;  -13.190;  645.220
1085.692;   13.265;  -12.480;  716.800
1086.236;   11.476;  -13.020;  503.140
1086.780;   13.969;   -9.190;  751.440
1087.325;   12.884;  -12.480;  654.620
1087.869;   12.477;  -12.450;  610.700
1088.413;   13.202;  -12.240;  705.040
1088.957;   11.145;   -9.020;  543.400
1089.501;   13.491;  -10.320;  766.640
1090.045;   12.057;  -12.720;  726.480
1090.589;   10.505;  -13.690;  569.920
1091.133;   12.059;  -10.020;  673.340
1091.676;   12.053;  -12.330;  591.940
1092.220;   10.769;  -14.970;  600.920
1092.764;   12.500;  -12.430;  706.960
1093.307;   11.807;   -9.800;  673.780
1093.851;   10.231;  -14.970;  556.540
1094.395;   11.460;  -15.310;  683.140
1094.938;   10.651;  -10.370;  632.520
1095.482;   11.249;  -11.050;  559.800
1096.025;   11.097;  -11.840;  710.880
1096.568;   10.926;  -12.840;  779.280
1097.112;    9.559;  -14.700;  508.180
1097.655;   10.687;   -8.720;  603.000
1098.198;    9.497;  -13.610;  600.180
1098.741;    9.405;  -13.350;  612.860
1099.285;   10.451;  -11.230;  657.300
1099.828;    8.689;  -11.840;  439.400
1100.371;    9.917;  -10.840;  608.160
1100.914;    9.709;  -14.190;  682.660
1101.457;   10.220;  -11.240;  679.900
1101.999;    8.411;  -11.270;  584.680
1102.542;    9.574;  -11.480;  641.440
1103.085;    8.900;  -11.750;  658.500
1103.628;    9.818;  -11.400;  762.060
1104.170;    9.034;  -10.490;  588.280
1104.713;    9.487;  -10.600;  646.700
1105.256;    8.140;  -14.360;  557.440
1105.798;    8.112;  -13.210;  499.980
1106.341;    9.582;  -10.270;  728.900
1106.883;    8.314;  -12.200;  521.340
1107.425;    8.782;  -13.110;  668.180
1107.968;    8.291;  -12.840;  612.380
1108.510;    8.115;   -6.480;  684.960
1109.052;    6.838;  -13.940;  612.620
1109.594;    7.092;  -13.690;  554.440
1110.136;    8.295;  -11.880;  643.220
1110.679;    7.500;   -9.500;  633.080
1111.221;    8.672;  -14.160;  604.460
1111.763;    6.808;  -13.980;  559.220
1112.304;    7.154;  -13.880;  547.140
1112.846;    7.416;  -12.210;  666.240
1113.388;   10.127;  -11.390;  942.180
1113.930;    6.830;  -14.540;  694.200
1114.472;    6.533;  -12.640;  606.540
1115.013;    6.614;  -11.620;  551.280
1115.555;    6.247;  -13.640;  587.100
1116.097;    5.750;  -15.380;  579.480
1116.638;    7.181;  -12.640;  684.600
1117.180;    7.030;   -9.850;  667.740
1117.721;    6.708;  -13.690;  568.580
1118.262;    6.931;  -12.680;  677.960
1118.804;    6.404;  -12.530;  637.340
1119.345;    6.252;  -11.690;  578.400
1119.886;    5.969;  -13.380;  704.040
1120.427;    5.351;  -14.070;  589.020
1120.969;    5.256;  -13.500;  597.920
1121.510;    4.857;  -11.480;  563.060
1122.051;    5.104;  -12.830;  723.580
1122.592;    4.514;  -14.290;  655.420
1123.133;    4.148;  -12.400;  547.940
1123.673;    5.949;  -10.130;  706.480
1124.214;    5.210;  -12.930;  612.460
1124.755;    5.462;  -14.380;  639.460
1125.296;    5.417;  -14.000;  627.320
1125.836;    5.794;  -10.070;  691.500
1126.377;    3.923;  -12.640;  599.660
1126.918;    4.683;  -12.960;  614.980
1127.458;    4.527;  -13.350;  622.220
1127.999;    4.985;  -10.750;  656.980
1128.539;    4.821;  -12.350;  694.240
1129.079;    3.727;  -14.860;  632.720
1129.620;    3.904;  -13.840;  558.100
1130.160;    3.708;  -12.330;  539.480
1130.700;    4.778;  -14.530;  640.840
1131.240;    4.096;  -12.530;  643.700
1131.781;    3.976;  -14.450;  619.680
1132.321;    3.685;   -9.790;  599.120
1132.861;    2.934;  -14.860;  564.200
1133.401;    2.074;  -14.290;  593.940
1133.941;    3.529;  -11.750;  626.280
1134.481;    3.648;   -9.920;  597.580
1135.020;    3.001;  -12.290;  609.160
1135.560;    3.273;  -11.650;  674.940
1136.100;    2.508;  -16.270;  501.160
1136.640;    2.638;  -10.890;  510.480
1137.179;    3.042;  -14.180;  537.960
1137.719;    2.422;  -16.250;  605.400
1138.258;    3.395;  -14.230;  587.360
1138.798;    3.220;   -9.090;  663.780
1139.337;    1.773;  -15.130;  482.840
1139.877;    2.676;  -13.680;  642.360
1140.416;    4.928;  -11.320;  878.060
1140.955;    2.398;  -10.860;  535.380
1141.494;    3.045;  -12.920;  669.280
1142.034;    1.921;  -13.930;  583.520
1142.573;    2.905;  -11.440;  646.280
1143.112;    1.636;  -12.000;  553.480
1143.651;    2.672;  -13.670;  536.480
1144.190;    2.951;  -12.730;  691.640
1144.729;    2.522;  -14.560;  607.420
1145.267;    2.330;  -11.830;  584.900
1145.806;    2.830;  -12.230;  637.040
1146.345;    1.198;  -14.130;  635.020
1146.884;    1.509;  -11.590;  622.500
1147.422;    0.764;  -12.550;  533.060
1147.961;    2.882;  -11.180;  708.460
1148.500;    1.727;  -11.510;  669.720
1149.038;    2.169;  -11.640;  632.500
1149.577;    2.138;  -10.130;  698.640
1150.115;    0.117;  -13.970;  452.280
1150.653;    0.800;  -14.520;  607.340
1151.192;    1.263;  -12.810;  552.920
1151.730;    2.043;   -9.100;  652.560
1152.268;    0.242;  -12.220;  589.520
1152.806;    0.035;  -14.140;  571.180
1153.344;   -0.179;  -12.350;  577.640
1153.882;    0.935;   -8.980;  600.060
1154.421;   -0.743;  -15.190;  470.620
1154.958;    0.113;  -15.210;  595.240
1155.496;    1.561;  -12.850;  645.280
1156.034;    1.018;   -9.940;  721.880
1156.572;    1.586;  -13.570;  667.060
1157.110;   -1.120;  -14.590;  473.940
1157.647;    1.121;  -13.030;  676.960
1158.185;   -0.166;  -12.140;  564.320
1158.723;   -1.247;  -14.390;  509.200
1159.260;   -0.592;  -14.090;  701.700
1159.798;    0.338;  -11.920;  658.160
1160.335;   -0.042;  -11.110;  631.820

