
Integration time [ms]:   3.882
Averaging Nr. [scans]: 1000
Smoothing Nr. [pixels]: 0
Data measured with spectrometer [name]: 7414430SP
Wave   ;Sample   ;Dark     ;Reference
[nm]   ;[counts] ;[counts] ;[counts] 

288.544;  124.906;   10.292;  793.890
289.143;  129.180;    4.564;  681.602
289.742;  130.489;    6.144;  828.814
290.341;  117.880;    4.396;  789.841
290.940;  109.226;    0.938;  730.702
291.538;  109.765;   -0.684;  881.108
292.137;  109.198;   -2.845;  792.581
292.736;  113.073;   -0.144;  975.101
293.335;  109.713;   -6.352;  735.086
293.934;  110.848;   -7.642;  781.677
294.532;  111.711;   -4.992; 1031.958
295.131;   96.638;   -5.478;  834.394
295.730;   96.739;   -6.549;  809.588
296.328;   94.128;   -9.558;  783.442
296.927;   94.808;   -8.118;  779.652
297.525;   96.258;   -6.908;  781.236
298.124;   86.946;   -9.195;  654.009
298.722;   91.729;   -8.198;  761.933
299.321;   89.135;   -8.817;  708.597
299.919;   87.427;   -7.716;  751.918
300.518;   82.970;  -10.745;  689.338
301.116;   85.381;   -9.647;  691.381
301.715;   85.172;  -10.828;  730.222
302.313;   84.198;   -6.087;  704.943
302.911;   79.186;   -6.824;  733.830
303.509;   85.961;   -8.807;  925.627
304.108;   82.596;   -8.198;  760.383
304.706;   81.871;   -6.218;  801.664
305.304;   77.513;   -7.185;  796.707
305.902;   83.310;   -8.568;  784.484
306.500;   79.304;   -7.737;  728.200
307.098;   76.961;   -6.026;  746.560
307.696;   75.789;   -7.176;  780.432
308.294;   76.732;   -8.656;  731.359
308.892;   78.593;   -6.838;  759.769
309.490;   74.112;   -2.596;  712.161
310.088;   71.051;   -4.485;  788.444
310.686;   77.490;   -3.907;  821.749
311.284;   72.364;   -2.806;  766.040
311.882;   70.564;   -2.845;  731.225
312.480;   67.384;   -3.274;  697.167
313.078;   69.520;   -3.645;  808.331
313.675;   70.967;   -4.997;  691.600
314.273;   65.669;   -0.894;  797.837
314.871;   63.897;   -2.854;  589.829
315.468;   63.380;   -3.644;  652.090
316.066;   66.472;   -3.947;  694.427
316.664;   58.520;   -1.824;  656.351
317.261;   63.492;    1.565;  910.128
317.859;   59.427;   -3.955;  768.735
318.456;   60.913;   -2.886;  830.096
319.054;   56.459;   -0.995;  787.828
319.651;   55.733;   -1.765;  759.928
320.249;   55.889;   -3.685;  810.188
320.846;   53.601;   -3.736;  714.286
321.443;   51.015;   -2.065;  832.135
322.041;   47.888;   -5.635;  812.315
322.638;   47.245;   -5.985;  701.456
323.235;   48.542;   -6.677;  665.683
323.833;   46.127;   -3.497;  740.354
324.430;   41.083;   -6.756;  615.900
325.027;   43.668;   -7.647;  876.855
325.624;   43.864;   -7.598;  644.532
326.221;   40.878;   -5.848;  689.717
326.818;   40.432;   -5.777;  818.332
327.415;   43.089;   -8.769;  748.828
328.012;   42.264;   -6.299;  690.585
328.609;   40.864;   -6.639;  731.389
329.206;   38.294;   -6.358;  778.621
329.803;   38.516;   -8.698;  737.841
330.400;   39.659;   -8.379;  704.260
330.997;   40.753;   -6.178;  817.147
331.594;   37.600;   -5.646;  788.185
332.191;   43.214;   -6.928;  728.722
332.787;   44.891;   -6.057;  844.463
333.384;   41.788;   -6.445;  763.093
333.981;   39.216;   -8.002;  815.687
334.578;   41.903;   -8.443;  708.378
335.174;   44.043;   -6.053;  731.469
335.771;   44.743;   -5.791;  836.456
336.367;   41.069;   -6.570;  710.631
336.964;   43.937;   -6.741;  793.266
337.561;   46.163;   -5.710;  731.112
338.157;   40.482;   -3.928;  911.916
338.754;   35.295;   -5.577;  796.589
339.350;   36.130;   -9.667;  722.493
339.946;   39.759;   -5.269;  773.135
340.543;   31.562;   -4.485;  846.136
341.139;   25.367;   -7.584;  720.836
341.735;   23.594;   -8.553;  772.593
342.332;   22.676;   -4.984;  691.472
342.928;   23.898;   -3.475;  795.394
343.524;   18.249;   -6.653;  761.684
344.120;   14.352;   -7.173;  738.562
344.716;   18.259;   -4.385;  723.717
345.313;   15.763;   -3.565;  795.342
345.909;   10.950;   -7.495;  627.336
346.505;   14.245;   -8.276;  740.247
347.101;   14.861;   -5.697;  827.864
347.697;   16.556;   -4.767;  785.398
348.293;    9.168;   -7.226;  627.244
348.889;   10.736;   -7.547;  745.914
349.485;    9.965;   -9.147;  688.205
350.081;   10.768;   -6.568;  772.592
350.676;    7.074;   -6.516;  691.606
351.272;   11.101;   -7.378;  809.530
351.868;   11.097;   -6.759;  780.497
352.464;    7.689;   -4.798;  723.932
353.059;    4.199;   -7.977;  646.017
353.655;    8.481;   -8.769;  777.063
354.251;    9.259;   -5.920;  759.845
354.846;    3.378;   -7.647;  740.646
355.442;    1.106;   -6.956;  753.071
356.038;    3.171;   -9.928;  751.708
356.633;    3.527;   -7.698;  728.594
357.229;    1.069;   -6.307;  724.757
357.824;   -0.002;   -7.647;  703.600
358.420;   -0.662;  -10.047;  679.726
359.015;    0.151;   -7.458;  695.357
359.610;    0.795;   -5.748;  763.920
360.206;   -4.946;   -9.346;  603.240
360.801;   -1.906;  -11.268;  646.503
361.396;    0.139;   -8.789;  725.975
361.992;   -4.283;   -6.347;  668.220
362.587;   -7.191;   -6.476;  670.160
363.182;   -4.223;   -9.457;  689.631
363.777;   -2.911;   -7.147;  738.242
364.372;   -3.665;   -5.507;  737.314
364.967;   -7.641;   -6.386;  680.744
365.563;   -2.859;   -7.858;  815.567
366.158;   -6.225;   -8.517;  685.161
366.753;   -5.371;   -8.728;  649.263
367.348;   -7.305;   -7.677;  746.056
367.942;   -7.273;  -10.387;  697.298
368.537;   -8.129;   -7.187;  754.245
369.132;   -8.721;   -8.587;  703.428
369.727;  -12.167;   -8.606;  638.079
370.322;  -10.252;  -10.426;  580.186
370.917;   -9.954;   -5.776;  710.646
371.511;   -7.335;   -6.007;  861.834
372.106;  -11.343;   -6.686;  776.964
372.701;  -13.862;   -9.335;  585.988
373.296;   -8.165;   -6.777;  863.135
373.890;  -12.867;   -7.546;  647.840
374.485;  -15.891;   -8.755;  691.199
375.079;  -10.927;   -9.797;  738.685
375.674;   -9.442;   -6.327;  812.970
376.268;  -14.140;   -9.046;  691.759
376.863;  -20.257;   -7.993;  580.327
377.457;  -13.036;   -9.206;  662.490
378.052;  -14.730;   -5.345;  764.884
378.646;  -16.260;   -5.605;  741.167
379.240;  -16.736;   -6.825;  721.176
379.835;  -14.938;  -10.476;  636.978
380.429;  -17.059;   -8.676;  562.557
381.023;  -17.193;   -4.945;  779.205
381.617;  -19.393;   -8.094;  680.106
382.212;  -15.511;  -10.646;  685.303
382.806;  -14.209;   -8.136;  760.690
383.400;  -18.934;   -7.855;  672.281
383.994;  -19.781;   -8.125;  664.870
384.588;  -15.738;   -7.637;  697.701
385.182;  -14.019;   -7.458;  726.624
385.776;  -15.840;   -6.277;  706.875
386.370;  -19.435;   -7.485;  681.968
386.964;  -17.182;   -9.416;  684.155
387.558;  -16.058;   -8.518;  598.360
388.152;  -19.513;   -7.096;  681.959
388.745;  -17.996;   -7.656;  814.707
389.339;  -15.478;   -8.927;  747.642
389.933;  -14.282;   -9.538;  695.370
390.527;  -16.024;   -5.857;  859.029
391.120;  -22.907;   -9.455;  595.318
391.714;  -19.461;   -9.746;  711.633
392.308;  -15.768;   -7.857;  780.253
392.901;  -19.663;   -9.106;  642.460
393.495;  -21.462;  -10.365;  595.414
394.089;  -19.109;   -9.696;  760.452
394.682;  -19.228;   -7.016;  697.188
395.275;  -19.770;   -8.466;  719.927
395.869;  -21.368;   -8.985;  667.314
396.462;  -19.393;  -11.496;  616.609
397.056;  -15.675;   -7.838;  776.621
397.649;  -20.746;   -6.895;  731.575
398.242;  -17.757;   -5.017;  712.645
398.836;  -16.521;   -8.787;  766.408
399.429;  -17.160;   -8.967;  631.041
400.022;  -21.427;   -8.815;  665.902
400.615;  -18.891;   -6.276;  805.609
401.208;  -16.837;   -8.407;  691.451
401.802;  -18.691;   -7.296;  699.329
402.395;  -20.730;   -7.585;  683.502
402.988;  -21.153;   -8.015;  696.627
403.581;  -18.133;   -9.577;  646.878
404.174;  -15.206;   -7.588;  686.568
404.767;  -18.359;   -7.906;  638.583
405.360;  -20.903;   -7.875;  621.445
405.953;  -13.676;   -8.127;  759.034
406.545;  -13.072;   -7.198;  725.342
407.138;  -19.202;   -8.916;  618.350
407.731;  -17.782;   -9.767;  613.303
408.324;  -12.457;  -10.659;  660.554
408.917;  -14.018;   -8.068;  681.864
409.509;  -16.487;   -9.837;  740.396
410.102;  -18.465;   -8.146;  643.948
410.695;  -11.905;   -7.969;  665.758
411.287;  -12.766;   -8.579;  599.821
411.880;  -13.697;   -6.968;  585.421
412.472;  -16.802;   -9.487;  613.092
413.065;  -13.464;  -10.338;  629.408
413.657;  -11.280;   -9.169;  576.678
414.250;  -11.284;  -10.119;  646.681
414.842;  -13.927;   -9.938;  676.353
415.434;  -10.952;  -10.409;  570.463
416.027;   -6.884;   -9.591;  652.196
416.619;   -8.523;   -7.379;  713.400
417.211;   -9.612;   -9.159;  599.352
417.804;   -5.152;   -9.191;  628.499
418.396;   -9.335;   -8.159;  607.643
418.988;   -6.809;   -6.960;  659.238
419.580;  -10.705;  -11.389;  568.276
420.172;   -8.160;  -13.460;  536.196
420.764;   -3.784;  -10.701;  672.482
421.356;   -5.746;   -8.961;  636.898
421.948;   -6.127;   -9.770;  677.661
422.540;   -0.648;   -8.832;  680.027
423.132;   -1.576;   -8.153;  600.641
423.724;   -4.766;   -8.481;  561.267
424.316;   -2.981;   -9.261;  621.345
424.908;    0.872;   -9.643;  591.517
425.500;    1.697;   -8.663;  647.978
426.092;    1.725;   -8.503;  648.268
426.683;    0.862;  -10.522;  684.836
427.275;    3.938;  -11.734;  641.471
427.867;    5.988;  -10.264;  668.948
428.458;    6.093;   -7.644;  732.344
429.050;    4.530;   -7.853;  680.749
429.642;    6.612;   -8.904;  743.124
430.233;    7.197;  -10.795;  569.356
430.825;    9.292;   -7.665;  724.809
431.416;    5.726;   -8.843;  698.241
432.008;   10.973;   -9.885;  651.723
432.599;   10.373;   -9.966;  656.073
433.190;    6.605;   -9.164;  637.670
433.782;    6.236;   -8.584;  590.395
434.373;   14.696;   -8.296;  884.765
434.964;   13.226;   -9.896;  602.920
435.556;   10.067;   -8.255;  634.537
436.147;   13.039;   -8.075;  758.490
436.738;   13.961;   -9.716;  701.099
437.329;   18.384;   -7.318;  721.723
437.920;   12.331;   -6.694;  666.688
438.511;   11.202;   -9.644;  564.526
439.103;   19.022;   -9.427;  623.998
439.694;   20.179;  -10.748;  681.583
440.285;   21.607;   -7.997;  764.432
440.876;   19.250;  -10.046;  845.738
441.466;   19.124;  -13.467;  575.162
442.057;   24.526;   -9.329;  665.814
442.648;   22.775;   -7.707;  746.255
443.239;   20.692;   -9.017;  620.477
443.830;   26.112;  -10.279;  704.958
444.421;   28.219;  -12.630;  655.474
445.011;   24.086;   -8.697;  693.619
445.602;   24.368;   -7.787;  743.126
446.193;   26.216;  -13.329;  488.117
446.783;   31.289;   -9.171;  640.397
447.374;   26.058;   -7.457;  692.759
447.964;   26.788;   -9.277;  713.770
448.555;   35.196;   -9.041;  822.742
449.145;   32.268;   -8.969;  662.853
449.736;   32.869;   -6.809;  803.179
450.326;   32.189;   -7.229;  713.626
450.917;   37.427;  -11.391;  675.324
451.507;   36.858;   -9.501;  600.661
452.097;   37.455;   -8.460;  746.267
452.688;   38.635;  -10.080;  742.160
453.278;   38.208;  -12.861;  566.840
453.868;   43.702;   -8.372;  793.550
454.458;   40.919;   -8.131;  651.141
455.048;   41.066;   -8.520;  711.783
455.639;   42.216;  -13.632;  567.096
456.229;   46.857;  -10.143;  710.694
456.819;   48.481;   -9.163;  751.158
457.409;   48.646;   -8.652;  773.993
457.999;   52.069;   -9.933;  737.505
458.589;   51.541;  -10.363;  686.606
459.179;   51.101;  -10.633;  717.658
459.769;   48.870;  -12.442;  627.099
460.358;   54.683;   -9.844;  797.262
460.948;   54.942;   -9.924;  689.503
461.538;   55.227;  -10.484;  660.677
462.128;   53.912;  -10.703;  664.934
462.717;   60.311;  -11.486;  710.326
463.307;   63.475;  -10.767;  705.846
463.897;   59.665;   -8.814;  656.942
464.486;   58.405;   -8.182;  837.128
465.076;   64.292;   -9.985;  733.776
465.666;   67.590;  -10.447;  652.900
466.255;   64.475;   -7.754;  785.651
466.845;   63.343;  -10.884;  666.749
467.434;   66.658;  -12.525;  725.873
468.023;   67.844;  -11.456;  658.357
468.613;   64.486;   -9.173;  713.946
469.202;   69.902;   -9.306;  646.507
469.791;   74.603;   -8.917;  737.811
470.381;   75.620;   -9.657;  742.813
470.970;   75.854;   -9.947;  711.099
471.559;   75.107;   -9.256;  733.291
472.148;   79.226;  -13.397;  675.737
472.738;   81.463;   -9.928;  765.466
473.327;   79.912;  -10.897;  637.529
473.916;   80.212;   -8.526;  737.446
474.505;   85.041;  -11.078;  751.703
475.094;   88.457;   -9.559;  806.570
475.683;   86.702;   -8.838;  797.699
476.272;   87.435;  -10.198;  730.632
476.861;   91.013;  -11.489;  706.754
477.449;   97.815;  -10.721;  728.487
478.038;   91.282;   -9.818;  692.513
478.627;   92.496;   -9.887;  714.852
479.216;   99.566;  -10.030;  769.441
479.805;  102.735;   -9.401;  783.375
480.393;  102.185;   -5.739; 1008.945
480.982;  100.847;   -7.838;  874.501
481.571;  107.025;   -9.111;  858.333
482.159;  107.884;  -10.601;  705.386
482.748;  108.033;   -8.500;  821.385
483.336;  113.196;   -9.241;  858.209
483.925;  113.001;  -10.440;  774.373
484.513;  119.503;  -11.063;  758.962
485.102;  116.309;   -9.540;  810.965
485.690;  125.452;   -6.742; 1011.050
486.278;  127.564;   -8.442;  979.329
486.867;  127.905;  -10.472;  809.662
487.455;  129.235;   -8.811;  898.229
488.043;  130.538;  -10.721;  748.361
488.631;  140.720;  -10.393; 1005.079
489.220;  144.470;  -10.843;  908.626
489.808;  142.123;  -10.572;  741.415
490.396;  151.813;  -10.482;  914.645
490.984;  158.948;  -11.542;  830.161
491.572;  168.253;   -8.463;  940.315
492.160;  173.226;   -8.491;  919.081
492.748;  181.751;   -9.681;  884.341
493.336;  201.715;  -10.493; 1019.693
493.924;  227.229;   -9.354;  958.077
494.512;  258.916;   -9.132; 1066.638
495.100;  292.814;   -9.001; 1103.280
495.687;  342.981;  -11.924; 1206.373
496.275;  408.646;  -11.193; 1150.796
496.863;  504.038;   -9.241; 1281.171
497.451;  610.643;  -11.341; 1386.805
498.038;  702.820;  -11.364; 1556.729
498.626;  812.470;   -8.104; 1741.407
499.214;  986.791;   -8.842; 2016.609
499.801; 1164.369;  -10.112; 2220.633
500.389; 1351.298;  -11.953; 2312.494
500.976; 1586.541;  -10.023; 2744.849
501.564; 1881.033;   -8.662; 3148.565
502.151; 2234.145;  -10.531; 3515.999
502.738; 2601.944;  -13.853; 3971.274
503.326; 3129.720;  -10.794; 4403.796
503.913; 3656.611;   -8.663; 5161.749
504.500; 4006.778;  -10.172; 5986.420
505.088; 4330.766;  -13.472; 6381.201
505.675; 5021.481;  -10.924; 6925.547
506.262; 5778.359;   -8.551; 7619.060
506.849; 6612.309;  -10.523; 8733.969
507.436; 7329.958;  -10.834; 9790.121
508.023; 7598.108;   -9.093; 9985.472
508.610; 8014.653;  -10.073;10434.618
509.197; 8605.734;   -9.500;11198.435
509.784; 9969.172;  -13.242;12391.194
510.371;10675.550;  -10.964;13603.713
510.958;10558.316;   -9.772;14426.586
511.545;11648.358;   -7.842;15243.775
512.132;11824.609;  -12.184;15945.876
512.719;12005.178;   -9.733;16340.369
513.305;13925.667;   -9.172;18011.766
513.892;15453.047;   -9.581;19754.971
514.479;17319.305;  -10.253;20967.805
515.066;19592.494;   -8.183;22299.793
515.652;20799.508;   -9.253;22908.660
516.239;21757.484;   -9.412;23798.875
516.825;24047.648;  -11.153;25567.275
517.412;23825.945;  -10.263;28154.959
517.998;23976.949;   -8.802;28344.111
518.585;23815.660;  -10.401;27134.219
519.171;23883.297;  -12.744;27268.576
519.758;26258.270;  -11.793;28964.129
520.344;28342.637;   -8.912;30664.494
520.930;27890.711;  -10.901;32550.605
521.516;28828.166;  -12.034;35422.895
522.103;30038.617;  -10.473;38280.004
522.689;31888.896;   -8.311;37835.117
523.275;35438.469;  -10.691;37288.613
523.861;36382.891;  -11.193;37281.395
524.447;36888.777;  -11.484;37846.949
525.033;36734.047;   -7.702;38321.949
525.619;36347.516;  -11.241;38579.285
526.205;37476.527;  -12.152;40622.875
526.791;36945.910;  -11.423;42258.836
527.377;34384.449;   -7.981;42966.902
527.963;35103.121;   -9.450;42018.949
528.549;38753.930;  -11.351;42476.828
529.135;40426.488;  -10.202;41854.852
529.721;39487.723;   -8.672;41237.711
530.306;38151.930;   -9.111;41259.445
530.892;39478.387;  -11.252;41506.047
531.478;41833.262;  -10.432;43559.613
532.063;44315.953;  -10.721;47695.563
532.649;45786.234;   -7.450;50808.324
533.235;45996.359;  -11.811;51787.500
533.820;46563.520;   -9.383;52145.035
534.406;46320.922;   -9.400;51133.488
534.991;45689.070;   -8.861;49996.805
535.576;43607.648;  -10.612;48882.852
536.162;41786.227;   -7.322;46942.285
536.747;43260.250;   -9.360;45711.746
537.333;46194.559;  -10.450;48510.180
537.918;48177.789;  -12.610;50439.891
538.503;49564.520;  -12.132;50863.711
539.088;46995.238;  -10.831;50906.922
539.673;44410.180;  -11.220;52621.965
540.259;46072.211;  -11.481;52368.094
540.844;48794.605;  -11.462;50879.109
541.429;50436.375;   -7.869;52077.777
542.014;51255.844;  -11.859;52716.695
542.599;50492.098;  -11.061;52363.281
543.184;49648.750;  -12.300;53187.137
543.769;48792.508;   -9.369;54697.605
544.354;49058.574;  -12.020;53913.914
544.938;46319.543;  -10.350;49680.164
545.523;43808.180;  -10.841;47386.277
546.108;45394.953;   -8.579;49151.949
546.693;48031.934;   -8.818;51384.637
547.278;49119.516;  -11.331;51853.254
547.862;45635.121;  -10.292;51173.750
548.447;41918.328;   -8.349;51691.395
549.031;43407.367;  -10.838;52456.703
549.616;48659.734;  -11.681;52714.516
550.201;51665.602;  -11.140;52414.598
550.785;50271.621;   -8.649;52355.059
551.370;50491.066;  -11.889;54589.453
551.954;50022.770;  -11.239;58267.348
552.538;50081.070;   -8.850;59062.176
553.123;51072.250;  -10.829;58115.285
553.707;50819.789;   -8.887;56556.285
554.291;49675.352;  -10.430;56201.668
554.876;47790.043;   -9.799;55335.762
555.460;49003.910;  -10.018;54155.703
556.044;50002.270;   -7.307;53721.484
556.628;46921.320;  -12.229;53731.016
557.212;44037.813;   -9.820;54312.531
557.796;43345.988;   -9.109;53797.773
558.380;45183.488;   -9.707;56145.984
558.964;44158.301;  -10.980;57277.930
559.548;44598.754;  -12.010;56459.641
560.132;48147.258;   -7.928;54434.543
560.716;49676.277;  -10.247;54800.617
561.300;49264.680;  -11.250;57606.945
561.884;50381.520;  -10.568;58972.445
562.467;48739.590;   -9.727;57327.570
563.051;47675.082;  -11.847;54962.434
563.635;46563.875;  -10.747;52594.473
564.219;43271.465;  -13.108;50610.410
564.802;40381.367;  -11.417;49551.180
565.386;41427.234;  -10.457;48370.953
565.969;42845.254;   -8.959;48178.871
566.553;42223.953;  -10.328;49957.305
567.136;41247.676;  -10.257;50369.594
567.720;41080.438;  -10.186;49492.004
568.303;41372.645;  -10.027;50616.352
568.887;42291.938;  -10.397;50727.148
569.470;40666.324;   -8.185;51698.379
570.053;39670.938;  -11.596;52122.078
570.637;39152.273;  -11.378;52536.438
571.220;38574.559;   -9.138;51186.098
571.803;37491.023;   -7.675;51032.762
572.386;36160.234;   -8.976;49609.887
572.969;34128.617;  -12.477;48285.926
573.552;35175.301;   -9.767;47624.285
574.135;35689.867;   -8.175;45498.641
574.718;32333.541;  -11.096;41970.434
575.301;30330.809;  -11.966;41447.137
575.884;28328.076;  -12.836;40923.836
576.467;32084.537;   -9.116;45267.723
577.050;32270.758;  -10.536;48175.543
577.633;32319.814;  -11.027;47729.328
578.216;32880.996;   -9.946;47579.793
578.799;33779.551;   -9.645;47820.996
579.381;35661.332;   -9.446;48115.551
579.964;37627.660;  -12.217;47333.766
580.547;38516.082;  -10.586;46668.969
581.129;38644.688;   -8.374;44466.141
581.712;36528.996;  -10.434;44164.922
582.294;34735.754;  -10.896;46477.855
582.877;34907.949;   -8.906;48244.254
583.459;35418.984;   -9.994;47437.895
584.042;35936.770;  -10.084;46943.219
584.624;36207.430;  -13.534;46792.227
585.206;34656.105;  -12.716;46557.250
585.789;34794.238;  -11.614;45793.773
586.371;32451.641;  -10.203;43836.391
586.953;29596.055;  -10.314;42972.492
587.536;29549.400;   -9.776;42487.211
588.118;30528.686;   -9.821;42086.414
588.700;30811.424;  -10.073;43389.930
589.282;27826.379;  -12.395;43646.039
589.864;26341.658;  -11.514;43438.109
590.446;26990.977;  -10.803;43151.926
591.028;28723.789;  -11.043;42781.867
591.610;30824.592;  -13.244;42839.098
592.192;31427.564;  -11.095;42820.402
592.774;30311.410;  -10.823;40724.277
593.356;29499.910;  -11.052;39874.789
593.937;30439.791;  -11.664;39980.648
594.519;33974.285;  -10.454;42069.633
595.101;36951.316;  -10.322;42976.031
595.683;35695.422;  -10.042;44084.441
596.264;31956.930;  -14.334;43478.797
596.846;33066.125;  -10.863;43803.672
597.427;32198.148;   -9.901;42986.934
598.009;30851.607;  -10.911;42832.219
598.591;31754.666;  -10.483;42580.086
599.172;33252.750;   -9.663;43061.805
599.753;34010.359;  -10.631;41691.469
600.335;34268.449;   -9.371;40692.520
600.916;32317.115;  -13.992;39982.422
601.498;31967.740;   -8.352;40318.617
602.079;32605.746;   -8.411;40670.609
602.660;32144.234;  -10.841;41450.898
603.241;32017.791;  -12.963;41137.738
603.823;32672.074;  -11.523;38868.797
604.404;32589.686;  -11.881;38182.785
604.985;33284.137;  -11.721;38078.047
605.566;32491.063;   -9.293;38056.633
606.147;31136.801;  -10.940;37020.418
606.728;32808.652;  -11.840;37883.359
607.309;33722.063;  -11.781;38748.273
607.890;33957.500;  -11.262;38850.230
608.471;32465.340;  -10.111;37457.918
609.051;32204.189;   -7.709;36066.457
609.632;29398.004;  -12.409;35991.074
610.213;29686.848;  -10.811;37402.641
610.794;31206.490;  -11.630;38383.363
611.374;34685.078;   -8.030;40562.387
611.955;34160.211;  -10.809;38533.727
612.536;32749.861;  -10.531;36951.789
613.116;32424.049;  -12.820;37197.891
613.697;33526.590;  -11.419;38411.125
614.277;34225.367;   -9.768;38673.938
614.858;31340.525;  -10.251;37075.863
615.438;28201.973;  -11.981;35092.906
616.019;26183.344;   -8.978;33666.301
616.599;28222.654;  -12.219;34189.023
617.179;30461.641;  -14.170;36952.047
617.760;31406.146;   -9.211;39582.574
618.340;31580.510;   -9.018;38943.977
618.920;31852.402;   -9.249;37594.156
619.500;31942.441;  -12.728;37866.938
620.080;32720.223;  -12.939;37869.043
620.660;33935.426;  -11.586;36868.617
621.241;33457.930;  -11.538;36352.309
621.821;32177.379;  -11.398;35459.520
622.401;30681.420;  -10.179;35207.414
622.980;30924.215;  -11.587;35980.422
623.560;32261.318;  -12.888;37351.328
624.140;30327.238;  -13.149;34388.582
624.720;26097.881;   -9.928;32368.764
625.300;25847.094;  -10.869;32638.629
625.880;28311.297;   -8.617;34599.035
626.459;29592.545;  -12.138;36831.738
627.039;32434.314;  -12.267;38299.098
627.619;35541.113;   -7.476;38289.574
628.198;36780.480;  -11.347;37220.695
628.778;34086.793;  -11.678;37632.563
629.357;31632.852;  -12.438;38003.012
629.937;31192.588;   -9.576;38402.039
630.516;31173.271;  -11.096;37868.801
631.096;32026.863;  -11.828;35760.410
631.675;33164.730;  -11.565;35225.219
632.254;33993.406;  -11.845;35130.289
632.834;35525.039;  -11.545;35794.570
633.413;34814.102;  -10.887;35788.922
633.992;34846.586;  -10.175;34532.863
634.571;35331.352;   -9.704;33590.113
635.151;33595.258;  -10.815;34943.863
635.730;32313.891;  -11.617;35352.523
636.309;32282.605;  -10.836;35366.605
636.888;32864.043;   -9.755;36165.637
637.467;33163.766;  -11.684;37515.902
638.046;33246.121;  -11.987;39288.695
638.625;32724.773;  -10.455;38279.699
639.204;32551.617;  -11.234;37741.598
639.782;33422.059;  -12.023;38364.551
640.361;31606.996;  -11.506;36740.621
640.940;28474.729;  -12.316;34950.082
641.519;26522.600;  -11.616;34137.398
642.097;29323.594;   -9.266;35654.258
642.676;33100.816;  -12.936;35637.957
643.255;33722.496;   -9.966;36567.074
643.833;34002.348;   -8.916;37809.434
644.412;31561.564;  -10.936;37337.293
644.990;31059.895;  -12.176;37018.531
645.569;32283.342;  -12.246;36518.469
646.147;35601.637;  -12.107;36186.430
646.726;38223.559;  -12.937;36267.688
647.304;35148.617;  -12.547;36647.625
647.882;34432.371;  -12.597;39286.742
648.461;33660.973;   -9.427;39157.703
649.039;33766.125;   -8.937;35412.883
649.617;34379.516;  -11.067;34744.918
650.195;32801.426;  -10.657;35403.098
650.773;30206.799;  -10.097;35053.797
651.352;29979.410;  -11.887;33756.816
651.930;29295.518;  -13.557;31868.773
652.508;29154.316;  -11.767;33121.551
653.086;31476.352;  -10.777;33564.793
653.663;34220.094;  -12.067;34054.668
654.241;37267.625;  -14.918;35693.309
654.819;36834.258;  -11.788;36422.906
655.397;34804.449;  -11.268;38213.484
655.975;33107.125;  -11.738;39507.625
656.553;31345.148;  -11.018;39498.223
657.130;30146.971;  -12.848;40395.480
657.708;29274.037;  -10.098;39242.020
658.286;30539.318;  -11.678;38920.020
658.863;32765.307;  -11.498;40202.898
659.441;35303.770;  -11.008;39677.938
660.018;36907.906;  -11.048;40413.355
660.596;37773.734;  -12.058;39931.414
661.173;38427.992;  -14.158;39604.531
661.750;37845.848;  -12.298;39700.070
662.328;37458.211;  -10.699;39292.809
662.905;36972.848;  -12.119;38235.648
663.482;32899.211;  -11.829;36212.305
664.060;29182.221;  -11.009;35944.945
664.637;32545.020;  -10.369;35170.785
665.214;34881.523;  -10.459;34197.523
665.791;33636.629;  -12.599;34549.520
666.368;30807.854;  -12.919;35118.578
666.945;29233.439;  -10.699;36019.418
667.522;30579.795;  -11.359;36048.438
668.099;31166.307;  -13.529;36243.914
668.676;30037.051;  -10.229;35958.875
669.253;29524.100;   -9.279;37384.730
669.830;29132.727;  -11.370;36779.629
670.407;29162.188;  -10.950;35231.289
670.984;30162.656;  -12.850;35544.270
671.560;29159.891;   -8.440;35466.867
672.137;30258.588;  -13.520;34280.863
672.714;31398.896;  -13.620;34632.863
673.290;31363.545;  -10.450;35135.422
673.867;30461.299;  -10.960;36114.480
674.443;31450.471;  -13.300;36152.859
675.020;29430.180;  -12.370;35327.238
675.596;28657.617;  -11.250;35795.176
676.173;29073.783;  -11.080;35430.355
676.749;28952.787;  -13.220;33549.516
677.326;30149.512;  -13.000;32210.012
677.902;29899.982;  -12.701;32068.871
678.478;28363.500;  -12.801;32583.891
679.054;29159.053;   -8.601;32088.928
679.631;30310.596;  -12.631;30978.848
680.207;31063.498;   -9.451;33160.887
680.783;30473.574;  -11.701;35570.363
681.359;30923.264;  -12.701;36125.184
681.935;32772.961;  -13.271;35240.922
682.511;34333.066;  -10.791;34429.961
683.087;32214.420;  -10.791;34463.680
683.663;29050.090;   -8.121;34648.898
684.239;27089.352;  -13.261;34546.457
684.815;28016.820;  -10.581;35586.375
685.390;29731.133;   -9.961;35821.895
685.966;29190.879;  -11.182;35085.871
686.542;28563.344;  -13.512;34198.230
687.118;26652.602;  -11.472;32847.707
687.693;25756.656;  -10.152;32794.027
688.269;26092.961;  -14.442;33072.367
688.844;25057.619;  -11.852;33141.664
689.420;24051.510;  -13.942;33965.742
689.995;25484.033;   -9.702;34655.523
690.571;27322.463;  -11.312;33576.742
691.146;27441.787;  -14.332;32657.219
691.722;27172.178;  -11.192;32526.979
692.297;27899.072;  -10.962;33014.617
692.872;29396.299;  -11.082;34012.254
693.448;30375.123;  -14.732;34237.434
694.023;29664.287;  -12.363;34142.672
694.598;27535.955;  -12.393;34132.031
695.173;28254.541;  -11.023;34205.250
695.748;29640.105;  -12.743;32882.488
696.323;28790.445;  -11.103;32864.906
696.898;27891.961;   -8.123;33170.004
697.473;27692.842;  -12.603;32432.984
698.048;28289.391;  -12.553;31649.303
698.623;29512.109;  -12.573;30778.141
699.198;29171.723;  -12.743;31140.119
699.773;28701.094;  -12.843;31764.299
700.348;29205.598;  -16.683;31780.816
700.922;30376.518;  -11.403;32046.375
701.497;31645.000;  -11.253;32603.574
702.072;30570.135;  -10.044;34799.871
702.646;29726.547;  -13.054;35793.172
703.221;30472.676;  -11.414;35201.590
703.795;29851.313;  -10.644;34764.527
704.370;28055.594;  -13.484;34307.367
704.944;27053.801;  -12.144;33509.887
705.519;26553.238;  -12.024;31388.584
706.093;28460.738;  -11.234;31340.104
706.668;29431.111;   -9.874;32630.281
707.242;28284.373;  -12.404;32728.779
707.816;26732.680;  -10.644;32947.238
708.390;26289.354;  -11.174;33277.855
708.965;26292.699;  -10.324;33834.336
709.539;27135.861;  -12.014;33709.273
710.113;27342.219;  -12.295;33044.313
710.687;28908.787;  -10.965;31953.992
711.261;30608.150;  -13.685;30505.949
711.835;28813.875;  -15.335;30262.369
712.409;27608.559;  -13.785;31254.447
712.983;27776.111;  -10.525;32754.986
713.557;26008.570;  -13.175;34018.824
714.131;26017.322;  -13.245;34579.625
714.704;29075.697;  -13.175;33890.262
715.278;31259.424;  -11.545;33531.102
715.852;29879.170;  -10.975;33601.660
716.425;28604.752;  -10.075;33515.117
716.999;29415.924;  -12.185;33185.555
717.573;31832.352;   -9.685;33905.996
718.146;32392.910;  -10.516;35199.293
718.720;31075.707;  -12.106;35060.551
719.293;29599.234;  -12.386;34973.230
719.867;29698.959;  -12.456;36394.449
720.440;29417.941;  -10.686;36663.008
721.013;29423.891;  -12.596;35102.426
721.587;31230.105;  -13.956;33985.266
722.160;33528.105;   -9.806;33524.965
722.733;34155.137;  -11.676;32987.043
723.306;33322.605;  -14.276;33066.301
723.880;31063.320;  -12.126;33399.500
724.453;28558.271;  -10.156;33468.297
725.026;28248.313;  -12.956;33816.637
725.599;28368.271;  -11.676;32797.996
726.172;28817.379;  -12.337;33187.434
726.745;28986.209;  -11.277;35136.613
727.318;29053.313;  -11.927;35751.730
727.891;28229.457;  -13.607;35890.430
728.463;25885.918;  -11.327;34822.090
729.036;25742.244;  -11.917;32895.086
729.609;27081.098;  -12.697;31823.225
730.182;27668.045;  -11.787;31445.283
730.754;27492.213;  -12.957;32373.223
731.327;27681.408;  -11.017;33676.820
731.900;27653.611;  -12.797;33417.000
732.472;26849.064;  -10.677;31978.498
733.045;26342.318;  -12.797;30368.777
733.617;26525.264;  -13.908;30574.215
734.190;25517.816;  -12.258;31280.975
734.762;25757.059;  -13.438;31674.412
735.334;27032.168;  -11.758;31247.291
735.907;29625.879;  -11.158;29876.211
736.479;32479.611;  -11.258;29808.488
737.051;32734.322;  -10.918;30233.547
737.623;31519.027;  -11.038;31469.086
738.195;32817.840;  -12.188;31784.225
738.768;30416.350;  -11.378;32120.523
739.340;24759.389;  -12.598;32094.342
739.912;23221.434;  -11.568;31312.680
740.484;24893.596;   -9.348;31946.238
741.056;27387.203;  -12.628;32984.059
741.628;29078.119;  -13.349;33897.715
742.199;28094.219;  -11.309;33213.016
742.771;28584.869;  -12.699;31369.113
743.343;29596.447;  -11.919;31865.473
743.915;29726.250;  -11.679;32388.631
744.487;28331.363;  -12.249;31079.568
745.058;25739.383;  -11.119;30570.107
745.630;24227.525;   -9.439;29970.127
746.201;23429.047;  -11.949;29186.766
746.773;23482.850;  -12.639;28805.723
747.344;24731.191;  -11.039;29591.223
747.916;26834.021;  -12.549;31412.201
748.487;25795.518;  -12.659;32194.898
749.059;24319.295;  -13.059;32533.719
749.630;23445.631;  -12.080;32158.518
750.201;21942.803;  -13.100;30855.395
750.773;21217.475;  -15.310;28622.555
751.344;20687.822;  -12.240;28405.732
751.915;20794.459;  -11.960;28461.551
752.486;20117.416;  -13.200;27842.850
753.057;19097.857;  -15.230;27845.008
753.628;20485.074;  -13.130;27728.107
754.199;22953.074;  -12.720;27381.086
754.770;23014.654;  -10.680;25882.203
755.341;21636.689;  -11.010;25886.184
755.912;21259.441;  -12.990;26050.861
756.483;20424.717;  -11.110;26798.779
757.054;19968.453;  -12.190;27048.238
757.625;19905.297;  -13.981;26294.838
758.195;20090.527;  -11.041;26142.076
758.766;21088.512;  -11.861;26392.234
759.337;21413.611;  -11.461;26334.594
759.907;20873.623;  -15.001;27579.652
760.478;19728.271;   -9.681;28352.770
761.048;18788.572;  -12.421;27325.088
761.619;19651.439;  -11.761;26460.428
762.189;19979.471;  -12.391;26029.826
762.760;19290.963;  -10.201;26430.145
763.330;19972.896;  -10.811;26670.902
763.900;20601.973;  -10.261;26603.021
764.471;19627.539;  -13.061;25542.740
765.041;18269.689;  -11.051;24358.459
765.611;18201.721;  -11.032;23991.297
766.181;18336.330;  -10.532;24470.236
766.751;18806.498;  -13.502;24845.975
767.321;20090.607;  -11.392;24533.633
767.891;22025.205;  -11.522;24916.492
768.461;23285.379;  -13.672;24776.771
769.031;20601.797;  -14.652;24757.988
769.601;17742.535;  -10.182;24181.088
770.171;16497.977;  -11.752;23670.387
770.741;15548.856;  -12.272;22960.045
771.311;15442.588;  -13.112;22917.523
771.880;16578.568;  -14.122;23562.941
772.450;17305.449;  -11.782;24216.500
773.020;17247.092;  -12.642;24140.398
773.589;16109.742;  -13.043;24414.857
774.159;15453.939;  -11.783;23858.717
774.729;16395.293;  -13.473;22942.135
775.298;17249.066;  -14.523;22324.033
775.867;16949.844;  -12.013;21140.313
776.437;16246.147;  -12.113;20838.092
777.006;15859.575;  -13.543;20599.510
777.576;16414.631;  -12.523;20508.809
778.145;16547.834;  -12.173;20732.947
778.714;15897.756;  -12.153;21062.465
779.283;15187.697;  -11.833;20949.664
779.853;15366.801;  -13.483;20508.623
780.422;15508.129;  -12.933;20649.082
780.991;15068.486;  -13.173;21527.520
781.560;14846.374;  -10.224;22632.658
782.129;15318.313;  -12.684;23048.277
782.698;15337.083;  -11.284;23438.555
783.267;15316.319;  -11.684;23267.734
783.836;15111.804;  -10.974;22415.133
784.404;14608.973;  -13.534;20443.152
784.973;13757.440;  -16.734;19699.150
785.542;12609.601;  -12.594;19763.828
786.111;12438.434;  -11.644;20341.408
786.679;13590.097;  -11.384;20207.967
787.248;13891.780;  -12.014;19516.465
787.817;12748.599;  -12.804;18900.363
788.385;11468.813;  -11.994;17879.121
788.954;11626.019;  -12.564;17658.301
789.522;12472.882;  -12.225;17788.879
790.090;12484.718;  -13.775;18118.277
790.659;12401.859;  -12.485;18338.736
791.227;13062.170;  -12.295;18508.615
791.795;13678.994;  -13.415;17898.254
792.364;14100.722;  -12.995;17295.133
792.932;13740.815;   -8.365;16822.051
793.500;12678.311;  -11.925;17040.148
794.068;12931.190;  -13.245;17179.787
794.636;13597.521;  -13.815;16664.246
795.204;13604.732;  -13.375;16524.545
795.772;13390.121;  -12.125;17274.564
796.340;12517.595;  -13.855;17891.002
796.908;10884.319;  -13.456;17648.561
797.476;10195.549;  -13.116;17064.080
798.044;10541.494;  -13.226;16672.777
798.612;10835.340;  -11.236;17023.996
799.180;10684.002;  -10.476;16561.615
799.747;10351.136;  -11.746;15962.773
800.315; 9999.539;  -12.366;15296.992
800.883; 9395.966;  -14.616;14801.771
801.450; 9529.585;  -11.996;14534.430
802.018;10459.663;  -11.206;14173.248
802.585;10878.938;  -12.466;14029.547
803.153;10224.954;  -12.846;13836.846
803.720; 9585.353;  -12.136;13567.324
804.287; 9772.258;  -10.966;13360.622
804.855; 9839.924;   -9.797;13681.981
805.422; 8989.098;  -13.037;13536.560
805.989; 8348.475;  -12.697;13355.958
806.556; 8681.806;  -11.737;13747.896
807.124; 9386.338;  -11.997;13987.376
807.691; 9038.605;  -13.997;14038.674
808.258; 8436.173;  -10.927;14120.152
808.825; 8682.602;  -13.727;13860.111
809.392; 8682.380;  -11.847;13268.790
809.959; 8696.369;  -14.217;12680.389
810.526; 8703.394;   -8.277;12427.308
811.093; 8947.699;   -9.647;12030.105
811.659; 8964.974;  -10.987;11653.664
812.226; 8194.130;  -13.447;11637.183
812.793; 7637.255;  -14.418;11611.521
813.360; 7829.138;  -13.908;11885.181
813.926; 8417.749;  -12.918;12770.539
814.493; 8588.205;  -14.888;12677.638
815.060; 8066.793;  -12.758;11974.336
815.626; 7731.587;  -13.478;11594.715
816.193; 7644.009;  -13.898;11579.474
816.759; 7746.789;  -13.588;11666.972
817.325; 7741.205;  -12.018;11325.530
817.892; 7417.138;  -14.068;11105.369
818.458; 7509.530;  -13.458;10843.928
819.024; 7366.306;  -11.968;10714.406
819.591; 7108.633;  -11.028;10469.165
820.157; 7201.698;  -12.088;10235.523
820.723; 7276.786;  -12.599;10847.563
821.289; 6988.007;  -10.419;11040.980
821.855; 6817.684;  -10.939;10357.100
822.421; 6805.688;  -12.539; 9978.918
822.987; 6731.863;  -13.259; 9754.177
823.553; 6509.842;  -15.369;10065.755
824.119; 6416.305;  -10.779;10036.294
824.685; 6398.010;   -9.999;10029.192
825.251; 6201.366;  -11.819;10199.230
825.816; 6124.105;  -13.369; 9820.189
826.382; 5946.938;  -12.679; 9297.248
826.948; 5513.544;  -11.199; 9381.347
827.513; 5362.003;  -11.179; 9450.726
828.079; 5456.049;  -13.489; 9472.444
828.645; 5587.996;  -12.500; 9292.643
829.210; 5606.099;  -15.120; 9065.341
829.776; 5549.571;  -12.590; 9132.620
830.341; 5670.324;  -11.540; 9092.878
830.906; 6046.585;  -12.400; 9078.557
831.472; 5956.174;  -12.720; 8534.535
832.037; 5166.557;  -11.490; 8677.874
832.602; 4545.524;  -14.380; 8628.692
833.167; 4377.512;  -12.780; 8879.031
833.733; 4672.203;  -11.100; 9189.790
834.298; 4984.504;  -12.080; 9052.608
834.863; 4778.569;  -13.910; 8895.087
835.428; 4436.487;  -13.470; 8824.266
835.993; 4262.521;  -11.760; 8845.385
836.558; 4437.940;  -12.731; 8888.563
837.123; 4543.567;  -12.431; 8966.582
837.688; 4353.496;  -11.241; 8617.860
838.253; 4216.522;  -13.681; 8590.699
838.817; 4380.894;  -12.531; 8443.797
839.382; 4526.768;  -12.671; 8799.356
839.947; 4602.019;  -11.541; 8810.595
840.511; 4726.972;  -12.021; 8796.394
841.076; 4778.641;  -13.071; 8347.231
841.641; 4960.650;  -11.411; 8224.330
842.205; 5155.900;  -13.671; 8223.349
842.770; 5013.994;  -11.291; 8622.107
843.334; 4734.099;  -12.951; 8410.386
843.898; 4507.778;  -11.221; 8337.465
844.463; 4573.470;  -11.322; 8506.283
845.027; 4542.255;  -11.412; 8280.962
845.591; 4312.169;  -11.512; 8231.141
846.156; 4177.606;  -14.042; 7969.179
846.720; 4216.580;  -12.152; 7768.278
847.284; 4051.327;  -10.922; 7630.957
847.848; 3890.538;  -10.962; 7472.395
848.412; 3697.083;  -14.612; 7437.394
848.976; 3739.648;  -11.492; 7674.592
849.540; 4065.583;   -9.172; 7836.011
850.104; 4275.192;  -11.232; 7913.669
850.668; 4185.900;  -15.182; 7694.508
851.232; 4061.361;  -15.332; 7756.887
851.796; 3994.255;  -13.703; 7926.545
852.359; 4034.281;  -11.113; 7827.844
852.923; 4123.315;  -11.843; 7641.163
853.487; 4118.017;  -11.173; 7342.501
854.050; 4016.532;  -13.443; 7042.820
854.614; 3980.063;  -13.823; 7151.338
855.177; 3903.288;  -16.393; 7105.077
855.741; 3848.207;  -11.693; 6989.675
856.304; 3815.852;  -10.843; 6596.634
856.868; 3678.412;  -13.783; 6356.272
857.431; 3418.720;  -11.953; 6468.571
857.995; 3155.786;  -13.683; 6373.210
858.558; 3143.481;  -11.433; 6324.448
859.121; 3242.564;  -12.493; 6408.327
859.684; 3130.693;  -12.384; 6347.886
860.247; 2793.652;  -14.774; 6321.264
860.810; 2552.578;  -13.154; 6301.903
861.374; 2569.994;  -11.264; 6607.881
861.937; 2645.213;  -15.424; 6408.200
862.500; 2631.951;  -12.854; 6572.639
863.062; 2622.183;  -12.344; 6387.297
863.625; 2642.444;  -13.314; 6190.836
864.188; 2735.926;  -14.724; 5807.254
864.751; 2940.905;  -13.464; 5682.413
865.314; 3293.856;  -11.684; 5547.492
865.876; 3487.713;  -11.104; 5500.150
866.439; 3424.585;  -12.344; 5415.909
867.002; 3226.987;  -13.494; 5501.567
867.564; 2972.895;  -10.935; 5413.946
868.127; 2819.989;  -12.665; 5160.325
868.689; 2790.058;  -14.515; 5133.183
869.252; 2844.803;  -13.425; 5252.382
869.814; 3026.652;  -11.595; 5297.141
870.377; 3096.145;  -12.175; 5390.919
870.939; 2956.137;  -10.265; 5599.898
871.501; 2810.064;  -12.375; 5248.336
872.063; 2715.159;  -14.355; 4854.235
872.626; 2624.481;  -14.435; 4817.074
873.188; 2529.519;  -12.415; 4987.732
873.750; 2538.307;  -14.555; 4868.651
874.312; 2456.009;  -11.185; 4779.330
874.874; 2267.202;  -12.715; 4866.348
875.436; 2192.348;  -13.196; 4718.887
875.998; 2165.232;  -11.426; 4660.005
876.560; 2074.936;   -9.786; 4462.964
877.122; 2017.140;  -12.796; 4145.042
877.683; 2007.438;  -13.226; 4056.481
878.245; 1977.879;  -12.036; 3950.740
878.807; 1960.112;  -11.536; 4058.958
879.369; 1945.256;  -10.806; 3954.677
879.930; 1834.869;  -13.946; 3941.495
880.492; 1685.317;  -11.876; 4067.014
881.053; 1654.342;  -13.216; 3859.633
881.615; 1714.928;  -12.226; 3776.071
882.176; 1735.127;  -12.946; 3734.750
882.738; 1664.195;  -10.736; 3678.489
883.299; 1589.660;  -12.057; 3405.407
883.860; 1551.935;  -12.677; 3351.106
884.422; 1507.955;  -14.097; 3394.044
884.983; 1400.957;  -13.667; 3166.443
885.544; 1251.496;  -10.717; 3189.802
886.105; 1150.272;  -14.357; 3160.360
886.666; 1133.969;  -14.287; 3093.059
887.227; 1135.877;  -14.297; 2941.957
887.788; 1116.263;  -13.137; 2974.836
888.349; 1028.747;  -14.637; 2721.214
888.910;  950.608;  -12.247; 2696.493
889.471;  943.491;  -10.577; 2560.172
890.032;  935.679;  -12.937; 2558.190
890.593;  881.894;  -12.487; 2567.669
891.153;  817.427;  -11.898; 2460.307
891.714;  810.846;  -14.278; 2372.046
892.275;  809.794;  -13.308; 2309.505
892.835;  748.769;  -12.058; 2382.543
893.396;  673.404;  -15.268; 2295.502
893.956;  620.757;  -13.278; 2162.420
894.517;  590.765;  -11.968; 2125.439
895.077;  580.392;  -12.798; 2086.978
895.638;  555.835;  -11.908; 2126.316
896.198;  526.095;  -13.288; 1838.275
896.758;  502.436;  -12.198; 1892.813
897.319;  473.547;  -13.048; 1792.232
897.879;  432.787;  -13.718; 1762.751
898.439;  394.249;  -14.138; 1661.149
898.999;  384.843;  -13.659; 1781.468
899.559;  373.806;  -14.699; 1703.347
900.119;  352.642;  -14.339; 1537.525
900.679;  329.001;  -11.789; 1638.384
901.239;  305.343;  -13.629; 1527.902
901.799;  289.134;  -13.679; 1456.441
902.359;  275.496;  -13.679; 1357.140
902.919;  266.622;  -14.159; 1331.118
903.479;  255.445;  -13.419; 1317.257
904.038;  244.568;  -14.899; 1262.595
904.598;  231.885;  -14.339; 1152.034
905.158;  225.569;  -13.959; 1240.893
905.717;  221.680;  -12.749; 1233.691
906.277;  213.158;  -11.889; 1217.330
906.836;  205.936;  -12.870; 1222.408
907.396;  203.886;  -11.790; 1193.047
907.955;  200.506;  -13.750; 1182.526
908.515;  192.852;  -14.760; 1099.364
909.074;  187.331;  -12.540; 1092.863
909.633;  182.085;  -12.120; 1069.121
910.192;  179.387;  -12.550; 1196.460
910.752;  176.931;  -12.760; 1029.960
911.311;  173.494;  -14.750; 1009.780
911.870;  169.635;  -13.860;  971.460
912.429;  167.086;  -13.480; 1094.080
912.988;  162.862;  -12.370; 1081.060
913.547;  157.977;  -14.670;  940.380
914.106;  155.936;  -12.800;  999.420
914.665;  154.112;  -11.370;  984.020
915.224;  152.347;  -11.430; 1035.760
915.782;  152.031;  -12.260;  922.560
916.341;  152.428;  -12.540; 1049.840
916.900;  149.620;  -12.540;  925.260
917.458;  148.360;  -13.480;  884.220
918.017;  147.752;  -12.470;  942.600
918.576;  146.713;  -13.450;  904.440
919.134;  144.556;  -12.890;  837.980
919.693;  143.016;  -15.480;  893.060
920.251;  141.038;  -14.420;  876.500
920.809;  141.264;  -12.170;  839.580
921.368;  140.022;  -13.650;  885.360
921.926;  139.367;  -12.750;  842.940
922.484;  140.037;  -14.150;  903.360
923.042;  141.003;  -15.100;  880.340
923.601;  144.942;  -10.990;  998.680
924.159;  144.550;  -12.470;  935.560
924.717;  143.365;  -15.640;  841.080
925.275;  145.072;  -12.380;  903.240
925.833;  144.734;  -12.710;  779.320
926.391;  146.560;  -11.200;  938.380
926.949;  147.304;  -16.000;  857.680
927.506;  147.970;  -12.260;  903.500
928.064;  149.071;  -11.300;  877.580
928.622;  148.708;  -13.750;  880.100
929.180;  149.669;  -15.290;  814.180
929.737;  148.261;  -14.500;  808.540
930.295;  149.606;  -10.630;  928.480
930.853;  152.369;  -14.590;  849.100
931.410;  155.078;  -14.450;  821.120
931.968;  157.676;  -14.390;  940.660
932.525;  157.427;  -13.050;  909.380
933.082;  156.640;  -15.620;  811.440
933.640;  159.008;  -15.650;  925.900
934.197;  162.623;  -13.610;  886.360
934.754;  166.547;  -13.320;  897.780
935.312;  171.077;  -13.370;  863.340
935.869;  173.915;  -12.780; 1012.980
936.426;  172.631;  -14.480;  872.800
936.983;  173.718;  -13.180;  889.020
937.540;  175.374;  -15.710;  838.280
938.097;  176.608;  -14.980;  940.120
938.654;  178.627;  -13.060;  898.860
939.211;  179.104;  -12.760;  952.480
939.768;  177.494;  -16.230;  915.420
940.324;  178.035;  -10.940;  904.200
940.881;  178.090;  -12.570;  878.500
941.438;  176.949;  -13.650; 1021.200
941.995;  176.716;  -13.300;  992.560
942.551;  177.880;  -15.800;  875.620
943.108;  178.198;  -14.180;  937.920
943.664;  177.283;  -13.890;  869.340
944.221;  181.630;  -12.640; 1088.140
944.777;  180.538;  -14.700;  869.680
945.334;  179.608;  -13.010;  884.840
945.890;  181.104;  -13.480;  946.480
946.446;  180.914;  -14.920;  947.020
947.003;  178.379;  -13.860;  964.940
947.559;  179.329;  -12.000; 1063.040
948.115;  177.602;  -10.510; 1026.540
948.671;  177.054;  -12.760;  967.300
949.227;  173.313;  -15.390;  859.560
949.783;  168.791;  -15.570;  858.900
950.339;  168.725;  -12.800;  991.000
950.895;  167.695;  -13.780; 1023.840
951.451;  166.696;  -13.810;  925.280
952.007;  169.160;  -12.390;  998.540
952.563;  168.658;  -11.980;  937.780
953.118;  166.542;  -14.070;  904.940
953.674;  168.095;  -14.140;  935.780
954.230;  173.241;  -12.680;  949.640
954.785;  175.954;  -12.770;  936.640
955.341;  171.665;  -11.450;  998.160
955.897;  164.245;  -15.350;  834.660
956.452;  160.774;  -14.200;  953.840
957.008;  155.232;  -10.820; 1083.640
957.563;  153.143;  -13.200; 1009.540
958.118;  153.392;  -14.460;  877.700
958.674;  155.000;  -13.840;  946.780
959.229;  154.243;  -10.670; 1013.980
959.784;  153.647;  -17.040;  832.400
960.339;  157.032;  -12.970; 1001.280
960.894;  161.053;  -12.700;  963.760
961.449;  165.278;  -13.790;  859.960
962.004;  171.493;  -11.760; 1212.840
962.559;  169.587;  -14.840;  860.140
963.114;  164.696;  -14.530;  742.480
963.669;  161.467;  -12.780;  915.500
964.224;  156.703;  -14.330;  874.340
964.779;  151.345;  -14.380;  828.420
965.334;  146.356;  -12.460; 1017.860
965.888;  142.583;  -13.490;  875.360
966.443;  142.625;  -14.140;  972.380
966.998;  139.254;  -16.240;  819.460
967.552;  139.846;  -12.730;  908.380
968.107;  137.348;  -14.510;  868.300
968.661;  138.212;  -11.850;  922.440
969.216;  135.971;  -14.370;  856.280
969.770;  133.620;  -13.010;  917.200
970.324;  132.060;  -12.460;  923.140
970.879;  133.780;  -11.580;  947.180
971.433;  134.592;  -13.130;  952.720
971.987;  127.823;  -12.360;  895.340
972.541;  117.230;  -14.330;  917.100
973.095;  107.108;  -13.310; 1009.460
973.649;   95.613;  -15.830;  809.480
974.203;   91.031;  -15.830;  829.040
974.757;   91.332;  -13.480;  855.220
975.311;   93.216;  -13.720;  872.600
975.865;   97.864;  -15.780;  881.820
976.419;  100.516;  -14.290;  857.400
976.973;  100.759;  -13.210;  849.620
977.526;  101.451;  -12.300;  949.920
978.080;   97.270;  -14.840;  796.780
978.634;   98.888;  -13.100;  921.320
979.187;   96.244;  -12.300;  905.400
979.741;   96.665;  -12.020; 1018.380
980.294;   94.083;  -14.590;  789.160
980.848;   93.060;  -14.390;  717.220
981.401;   94.229;  -14.280;  816.540
981.955;   93.638;  -11.920;  844.300
982.508;   90.990;  -15.790;  746.340
983.061;   91.673;  -12.070;  915.260
983.615;   89.846;  -13.260;  798.800
984.168;   87.197;  -15.540;  770.080
984.721;   86.978;  -13.230;  880.760
985.274;   84.846;  -11.820;  867.500
985.827;   82.460;  -13.510;  834.220
986.380;   80.819;  -14.840;  721.340
986.933;   82.346;  -13.970;  864.800
987.486;   81.053;  -12.450;  861.920
988.039;   79.441;  -11.170;  863.100
988.591;   76.510;  -13.070;  893.260
989.144;   74.267;  -15.530;  737.260
989.697;   73.547;  -14.300;  758.740
990.250;   72.208;  -13.310;  858.100
990.802;   69.675;  -14.490;  755.860
991.355;   71.465;  -12.980;  974.880
991.907;   69.341;  -13.715;  864.320
992.460;   67.217;  -14.450;  753.760
993.012;   65.796;  -12.590;  749.540
993.565;   64.056;  -15.180;  711.360
994.117;   64.793;  -11.630;  950.780
994.669;   61.906;  -13.760;  701.320
995.221;   61.384;  -12.710;  791.920
995.774;   61.528;  -14.620;  787.580
996.326;   60.445;  -13.150;  740.220
996.878;   61.141;  -12.880;  838.420
997.430;   58.678;  -14.580;  699.860
997.982;   58.235;  -14.030;  750.140
998.534;   57.597;  -12.190;  739.060
999.086;   54.064;  -12.990;  738.220
999.638;   52.139;  -13.180;  661.380
1000.190;   51.136;  -14.970;  699.320
1000.741;   51.094;  -12.200;  742.700
1001.293;   50.604;  -13.400;  686.020
1001.845;   49.906;  -14.490;  676.640
1002.396;   50.868;  -15.280;  743.400
1002.948;   51.392;  -12.380;  737.400
1003.500;   49.610;  -13.260;  723.780
1004.051;   50.967;  -13.730;  907.580
1004.603;   50.170;  -12.300;  791.820
1005.154;   46.493;  -15.330;  608.980
1005.705;   45.631;  -12.800;  723.960
1006.257;   45.274;  -13.900;  707.220
1006.808;   44.230;  -14.430;  685.460
1007.359;   44.106;  -12.010;  763.240
1007.910;   42.111;  -12.690;  646.640
1008.461;   41.907;  -13.610;  732.940
1009.013;   41.273;  -14.990;  588.340
1009.564;   42.390;  -11.860;  793.520
1010.115;   39.646;  -12.640;  597.040
1010.665;   39.526;  -14.570;  602.160
1011.216;   40.706;  -15.190;  667.920
1011.767;   39.446;  -13.470;  697.920
1012.318;   39.787;  -13.760;  736.980
1012.869;   38.320;  -15.950;  679.000
1013.419;   37.851;  -15.880;  603.120
1013.970;   38.236;  -14.540;  666.640
1014.521;   37.940;  -13.220;  620.620
1015.071;   37.216;  -15.020;  670.380
1015.622;   37.254;  -17.510;  635.460
1016.172;   36.347;  -14.130;  596.820
1016.723;   36.136;  -14.220;  614.380
1017.273;   36.337;  -15.370;  604.160
1017.823;   36.052;  -15.290;  650.340
1018.374;   36.082;  -13.420;  611.760
1018.924;   36.245;  -11.740;  716.880
1019.474;   36.155;  -12.250;  718.880
1020.024;   35.487;  -15.850;  657.580
1020.574;   36.119;  -13.280;  726.160
1021.124;   35.817;  -13.560;  673.580
1021.674;   33.841;  -13.790;  559.120
1022.224;   34.839;  -14.610;  708.940
1022.774;   34.799;  -13.100;  668.820
1023.324;   34.502;  -11.470;  753.520
1023.874;   36.450;  -11.990;  875.760
1024.423;   33.609;  -14.550;  613.700
1024.973;   32.468;  -14.440;  610.760
1025.523;   32.183;  -13.250;  620.960
1026.072;   31.605;  -15.200;  606.420
1026.622;   32.162;  -14.590;  675.740
1027.172;   33.381;  -11.080;  715.660
1027.721;   31.548;  -14.010;  601.220
1028.270;   32.539;  -13.690;  663.400
1028.820;   32.068;  -15.380;  638.080
1029.369;   31.531;  -14.980;  612.700
1029.918;   31.311;  -13.100;  649.840
1030.468;   30.234;  -13.680;  564.780
1031.017;   31.970;  -13.770;  634.800
1031.566;   30.165;  -14.100;  608.900
1032.115;   31.019;  -11.770;  694.500
1032.664;   29.238;  -14.940;  596.480
1033.213;   30.846;  -13.370;  735.420
1033.762;   29.406;  -13.660;  635.620
1034.311;   29.162;  -13.650;  677.220
1034.860;   29.318;  -13.820;  691.000
1035.408;   29.567;  -12.860;  722.720
1035.957;   30.699;  -13.060;  719.540
1036.506;   27.312;  -14.510;  530.800
1037.055;   29.792;  -13.470;  844.320
1037.603;   28.529;  -14.800;  664.000
1038.152;   27.540;  -14.190;  534.760
1038.700;   27.464;  -11.810;  585.740
1039.249;   27.236;  -12.850;  681.220
1039.797;   27.045;  -14.610;  633.360
1040.345;   27.263;  -15.220;  705.420
1040.894;   27.173;  -13.480;  625.300
1041.442;   27.093;  -13.310;  632.200
1041.990;   25.358;  -14.510;  559.160
1042.538;   25.636;  -15.700;  536.180
1043.087;   25.731;  -13.910;  570.860
1043.635;   27.072;  -13.620;  670.500
1044.183;   26.103;  -14.230;  586.400
1044.731;   25.898;  -13.730;  576.000
1045.279;   25.603;  -13.970;  674.920
1045.827;   28.003;  -10.750;  892.400
1046.374;   24.742;  -15.230;  515.420
1046.922;   23.366;  -15.390;  590.580
1047.470;   25.661;  -12.320;  691.300
1048.018;   25.095;  -13.230;  647.960
1048.565;   25.638;  -13.390;  708.600
1049.113;   23.605;  -15.030;  557.000
1049.660;   24.370;  -12.540;  629.660
1050.208;   24.112;  -15.040;  675.640
1050.755;   23.728;  -14.680;  606.580
1051.303;   24.647;  -13.610;  686.820
1051.850;   22.975;  -14.340;  635.120
1052.397;   21.085;  -16.330;  473.960
1052.945;   22.007;  -15.710;  617.760
1053.492;   23.872;  -12.320;  741.840
1054.039;   23.817;  -13.730;  720.180
1054.586;   22.159;  -16.140;  557.240
1055.133;   23.464;  -14.020;  693.140
1055.680;   23.514;  -13.430;  646.620
1056.227;   21.801;  -14.570;  542.780
1056.774;   23.771;  -14.400;  794.980
1057.321;   20.907;  -14.230;  523.260
1057.868;   22.504;  -14.220;  651.320
1058.415;   21.362;  -14.060;  651.980
1058.961;   21.737;  -14.640;  678.940
1059.508;   21.230;  -13.970;  643.820
1060.055;   21.145;  -15.100;  581.780
1060.601;   21.348;  -12.180;  624.300
1061.148;   20.422;  -15.010;  616.820
1061.694;   19.929;  -14.750;  592.580
1062.241;   20.676;  -14.130;  596.320
1062.787;   20.541;  -14.770;  663.140
1063.334;   22.819;  -13.130;  808.560
1063.880;   20.185;  -14.420;  668.360
1064.426;   20.895;  -13.130;  706.820
1064.972;   19.430;  -13.960;  601.340
1065.518;   18.373;  -13.680;  566.640
1066.065;   19.720;  -15.720;  624.460
1066.611;   18.680;  -13.970;  598.800
1067.157;   19.250;  -13.920;  641.860
1067.703;   18.991;  -14.760;  668.480
1068.249;   18.998;  -14.490;  605.220
1068.794;   19.259;  -14.740;  626.880
1069.340;   18.145;  -13.220;  578.960
1069.886;   17.773;  -14.930;  590.700
1070.432;   17.399;  -14.700;  541.720
1070.977;   17.678;  -14.470;  601.080
1071.523;   17.904;  -14.330;  573.060
1072.068;   17.375;  -14.960;  582.000
1072.614;   16.935;  -16.220;  527.760
1073.160;   18.900;  -11.280;  687.040
1073.705;   16.832;  -15.990;  572.520
1074.250;   17.454;  -16.550;  559.900
1074.796;   18.291;  -14.600;  655.160
1075.341;   18.046;  -13.440;  664.100
1075.886;   16.879;  -14.450;  594.240
1076.431;   17.050;  -13.160;  649.880
1076.976;   16.975;  -14.710;  639.220
1077.521;   16.336;  -14.000;  583.080
1078.067;   15.599;  -14.470;  579.400
1078.612;   16.362;  -14.530;  661.620
1079.156;   16.109;  -15.660;  601.540
1079.701;   17.229;  -16.120;  693.260
1080.246;   17.002;  -12.960;  696.300
1080.791;   16.043;  -13.700;  625.020
1081.336;   16.614;  -15.540;  659.320
1081.880;   15.813;  -14.640;  649.680
1082.425;   15.306;  -14.220;  573.480
1082.970;   16.925;  -11.890;  717.040
1083.514;   15.875;  -13.820;  597.000
1084.059;   14.586;  -14.280;  586.720
1084.603;   14.273;  -12.890;  565.840
1085.147;   14.534;  -13.590;  645.220
1085.692;   15.961;  -14.050;  716.800
1086.236;   13.963;  -14.990;  503.140
1086.780;   16.145;  -12.640;  751.440
1087.325;   14.268;  -15.550;  654.620
1087.869;   15.259;  -14.980;  610.700
1088.413;   15.589;  -13.440;  705.040
1088.957;   13.147;  -12.170;  543.400
1089.501;   15.601;  -12.730;  766.640
1090.045;   14.997;  -14.650;  726.480
1090.589;   12.347;  -14.500;  569.920
1091.133;   13.975;  -12.320;  673.340
1091.676;   13.400;  -16.130;  591.940
1092.220;   13.746;  -13.930;  600.920
1092.764;   14.360;  -12.820;  706.960
1093.307;   13.515;  -11.700;  673.780
1093.851;   11.549;  -15.600;  556.540
1094.395;   13.369;  -13.920;  683.140
1094.938;   13.305;  -16.090;  632.520
1095.482;   12.364;  -13.820;  559.800
1096.025;   14.360;  -12.720;  710.880
1096.568;   14.510;  -12.100;  779.280
1097.112;   11.355;  -15.450;  508.180
1097.655;   12.295;  -14.310;  603.000
1098.198;   10.116;  -14.740;  600.180
1098.741;   11.393;  -15.550;  612.860
1099.285;   12.925;  -12.600;  657.300
1099.828;   10.248;  -15.050;  439.400
1100.371;   11.588;  -14.800;  608.160
1100.914;   12.293;  -16.480;  682.660
1101.457;   11.768;  -12.990;  679.900
1101.999;   10.442;  -14.110;  584.680
1102.542;   11.898;  -11.450;  641.440
1103.085;   11.578;  -13.350;  658.500
1103.628;   11.453;  -13.200;  762.060
1104.170;   10.337;  -12.310;  588.280
1104.713;   11.131;  -14.320;  646.700
1105.256;   10.149;  -16.110;  557.440
1105.798;    8.733;  -15.910;  499.980
1106.341;   11.539;  -12.200;  728.900
1106.883;    9.420;  -14.910;  521.340
1107.425;   10.307;  -14.960;  668.180
1107.968;    9.855;  -13.440;  612.380
1108.510;   10.163;  -14.010;  684.960
1109.052;    9.359;  -15.430;  612.620
1109.594;    8.715;  -15.290;  554.440
1110.136;   10.400;  -13.360;  643.220
1110.679;    8.854;  -13.820;  633.080
1111.221;    9.264;  -13.690;  604.460
1111.763;    8.700;  -14.890;  559.220
1112.304;    8.675;  -14.550;  547.140
1112.846;    9.562;  -12.760;  666.240
1113.388;   12.720;  -10.780;  942.180
1113.930;    8.848;  -12.690;  694.200
1114.472;    8.665;  -15.730;  606.540
1115.013;    7.298;  -14.620;  551.280
1115.555;    7.649;  -14.950;  587.100
1116.097;    7.189;  -16.460;  579.480
1116.638;    8.451;  -13.730;  684.600
1117.180;    8.576;  -13.810;  667.740
1117.721;    7.080;  -13.280;  568.580
1118.262;    9.296;  -15.080;  677.960
1118.804;    8.573;  -14.040;  637.340
1119.345;    7.516;  -15.430;  578.400
1119.886;    9.158;  -15.240;  704.040
1120.427;    6.913;  -15.820;  589.020
1120.969;    7.322;  -14.550;  597.920
1121.510;    5.856;  -14.030;  563.060
1122.051;    7.447;  -11.990;  723.580
1122.592;    6.505;  -16.490;  655.420
1123.133;    6.049;  -15.580;  547.940
1123.673;    7.308;  -12.850;  706.480
1124.214;    6.109;  -13.630;  612.460
1124.755;    7.236;  -14.830;  639.460
1125.296;    6.754;  -13.110;  627.320
1125.836;    7.625;  -11.320;  691.500
1126.377;    6.155;  -14.330;  599.660
1126.918;    7.404;  -12.800;  614.980
1127.458;    5.879;  -13.580;  622.220
1127.999;    6.716;  -10.330;  656.980
1128.539;    6.085;  -13.390;  694.240
1129.079;    5.777;  -16.420;  632.720
1129.620;    4.779;  -15.700;  558.100
1130.160;    4.545;  -14.790;  539.480
1130.700;    5.823;  -12.910;  640.840
1131.240;    6.028;  -15.610;  643.700
1131.781;    5.362;  -12.920;  619.680
1132.321;    5.316;  -15.300;  599.120
1132.861;    4.150;  -14.760;  564.200
1133.401;    4.726;  -15.470;  593.940
1133.941;    5.678;  -13.710;  626.280
1134.481;    4.275;  -11.820;  597.580
1135.020;    4.405;  -14.810;  609.160
1135.560;    4.951;  -13.660;  674.940
1136.100;    3.932;  -13.940;  501.160
1136.640;    3.271;  -15.410;  510.480
1137.179;    3.782;  -16.920;  537.960
1137.719;    4.494;  -16.430;  605.400
1138.258;    4.249;  -16.300;  587.360
1138.798;    4.640;  -13.710;  663.780
1139.337;    2.928;  -13.840;  482.840
1139.877;    4.865;  -16.140;  642.360
1140.416;    6.543;  -11.410;  878.060
1140.955;    3.288;  -12.820;  535.380
1141.494;    4.317;  -12.310;  669.280
1142.034;    3.564;  -16.280;  583.520
1142.573;    4.920;  -13.090;  646.280
1143.112;    2.811;  -13.770;  553.480
1143.651;    3.445;  -15.830;  536.480
1144.190;    4.377;  -15.010;  691.640
1144.729;    3.308;  -13.650;  607.420
1145.267;    3.534;  -13.670;  584.900
1145.806;    3.956;  -13.630;  637.040
1146.345;    2.487;  -14.160;  635.020
1146.884;    3.263;  -11.180;  622.500
1147.422;    2.255;  -15.890;  533.060
1147.961;    4.353;  -12.760;  708.460
1148.500;    2.798;  -15.220;  669.720
1149.038;    4.283;  -13.720;  632.500
1149.577;    2.074;  -13.250;  698.640
1150.115;    0.956;  -16.790;  452.280
1150.653;    2.346;  -15.810;  607.340
1151.192;    3.284;  -14.730;  552.920
1151.730;    2.538;  -13.660;  652.560
1152.268;    2.159;  -15.120;  589.520
1152.806;    2.232;  -15.580;  571.180
1153.344;    0.928;  -16.210;  577.640
1153.882;    1.685;  -12.810;  600.060
1154.421;    0.800;  -14.150;  470.620
1154.958;    1.546;  -15.360;  595.240
1155.496;    2.489;  -14.710;  645.280
1156.034;    2.281;  -13.640;  721.880
1156.572;    3.301;  -13.740;  667.060
1157.110;    0.827;  -16.960;  473.940
1157.647;    2.697;  -11.940;  676.960
1158.185;    0.987;  -14.090;  564.320
1158.723;   -0.117;  -13.610;  509.200
1159.260;    1.227;  -14.760;  701.700
1159.798;    1.976;  -13.700;  658.160
1160.335;    0.925;  -13.820;  631.820

