
Integration time [ms]:   3.882
Averaging Nr. [scans]: 1000
Smoothing Nr. [pixels]: 0
Data measured with spectrometer [name]: 7414430SP
Wave   ;Sample   ;Dark     ;Reference
[nm]   ;[counts] ;[counts] ;[counts] 

288.544;  126.837;   10.292;  793.890
289.143;  130.366;    4.564;  681.602
289.742;  131.521;    6.144;  828.814
290.341;  119.398;    4.396;  789.841
290.940;  110.401;    0.938;  730.702
291.538;  110.729;   -0.684;  881.108
292.137;  109.474;   -2.845;  792.581
292.736;  114.246;   -0.144;  975.101
293.335;  110.676;   -6.352;  735.086
293.934;  112.256;   -7.642;  781.677
294.532;  111.928;   -4.992; 1031.958
295.131;   98.570;   -5.478;  834.394
295.730;   97.371;   -6.549;  809.588
296.328;   94.175;   -9.558;  783.442
296.927;   95.579;   -8.118;  779.652
297.525;   97.084;   -6.908;  781.236
298.124;   87.711;   -9.195;  654.009
298.722;   91.711;   -8.198;  761.933
299.321;   89.249;   -8.817;  708.597
299.919;   87.857;   -7.716;  751.918
300.518;   84.722;  -10.745;  689.338
301.116;   85.619;   -9.647;  691.381
301.715;   85.908;  -10.828;  730.222
302.313;   84.904;   -6.087;  704.943
302.911;   80.597;   -6.824;  733.830
303.509;   85.886;   -8.807;  925.627
304.108;   83.001;   -8.198;  760.383
304.706;   82.428;   -6.218;  801.664
305.304;   78.216;   -7.185;  796.707
305.902;   84.308;   -8.568;  784.484
306.500;   78.666;   -7.737;  728.200
307.098;   77.623;   -6.026;  746.560
307.696;   76.170;   -7.176;  780.432
308.294;   76.638;   -8.656;  731.359
308.892;   79.910;   -6.838;  759.769
309.490;   74.907;   -2.596;  712.161
310.088;   72.680;   -4.485;  788.444
310.686;   77.656;   -3.907;  821.749
311.284;   73.182;   -2.806;  766.040
311.882;   71.821;   -2.845;  731.225
312.480;   68.124;   -3.274;  697.167
313.078;   70.248;   -3.645;  808.331
313.675;   71.032;   -4.997;  691.600
314.273;   65.861;   -0.894;  797.837
314.871;   65.690;   -2.854;  589.829
315.468;   63.800;   -3.644;  652.090
316.066;   66.778;   -3.947;  694.427
316.664;   59.995;   -1.824;  656.351
317.261;   64.955;    1.565;  910.128
317.859;   60.041;   -3.955;  768.735
318.456;   62.008;   -2.886;  830.096
319.054;   57.653;   -0.995;  787.828
319.651;   57.153;   -1.765;  759.928
320.249;   56.025;   -3.685;  810.188
320.846;   54.127;   -3.736;  714.286
321.443;   51.877;   -2.065;  832.135
322.041;   48.295;   -5.635;  812.315
322.638;   47.848;   -5.985;  701.456
323.235;   49.435;   -6.677;  665.683
323.833;   46.912;   -3.497;  740.354
324.430;   43.067;   -6.756;  615.900
325.027;   43.793;   -7.647;  876.855
325.624;   44.267;   -7.598;  644.532
326.221;   41.542;   -5.848;  689.717
326.818;   41.615;   -5.777;  818.332
327.415;   44.055;   -8.769;  748.828
328.012;   43.215;   -6.299;  690.585
328.609;   42.087;   -6.639;  731.389
329.206;   40.130;   -6.358;  778.621
329.803;   39.594;   -8.698;  737.841
330.400;   41.024;   -8.379;  704.260
330.997;   41.780;   -6.178;  817.147
331.594;   39.086;   -5.646;  788.185
332.191;   44.706;   -6.928;  728.722
332.787;   46.287;   -6.057;  844.463
333.384;   42.974;   -6.445;  763.093
333.981;   41.388;   -8.002;  815.687
334.578;   43.312;   -8.443;  708.378
335.174;   45.955;   -6.053;  731.469
335.771;   46.250;   -5.791;  836.456
336.367;   42.548;   -6.570;  710.631
336.964;   45.153;   -6.741;  793.266
337.561;   46.165;   -5.710;  731.112
338.157;   42.243;   -3.928;  911.916
338.754;   36.766;   -5.577;  796.589
339.350;   37.236;   -9.667;  722.493
339.946;   41.270;   -5.269;  773.135
340.543;   32.813;   -4.485;  846.136
341.139;   27.154;   -7.584;  720.836
341.735;   25.065;   -8.553;  772.593
342.332;   24.275;   -4.984;  691.472
342.928;   25.991;   -3.475;  795.394
343.524;   19.180;   -6.653;  761.684
344.120;   15.743;   -7.173;  738.562
344.716;   19.409;   -4.385;  723.717
345.313;   17.139;   -3.565;  795.342
345.909;   12.846;   -7.495;  627.336
346.505;   14.852;   -8.276;  740.247
347.101;   15.485;   -5.697;  827.864
347.697;   16.075;   -4.767;  785.398
348.293;   10.612;   -7.226;  627.244
348.889;   12.370;   -7.547;  745.914
349.485;   12.163;   -9.147;  688.205
350.081;   12.445;   -6.568;  772.592
350.676;    8.359;   -6.516;  691.606
351.272;   12.999;   -7.378;  809.530
351.868;   12.309;   -6.759;  780.497
352.464;    9.657;   -4.798;  723.932
353.059;    6.640;   -7.977;  646.017
353.655;    9.596;   -8.769;  777.063
354.251;   10.999;   -5.920;  759.845
354.846;    5.532;   -7.647;  740.646
355.442;    3.627;   -6.956;  753.071
356.038;    5.561;   -9.928;  751.708
356.633;    5.524;   -7.698;  728.594
357.229;    3.249;   -6.307;  724.757
357.824;    2.076;   -7.647;  703.600
358.420;    1.281;  -10.047;  679.726
359.015;    2.168;   -7.458;  695.357
359.610;    2.697;   -5.748;  763.920
360.206;   -2.874;   -9.346;  603.240
360.801;   -0.229;  -11.268;  646.503
361.396;    2.828;   -8.789;  725.975
361.992;   -2.076;   -6.347;  668.220
362.587;   -4.502;   -6.476;  670.160
363.182;   -2.681;   -9.457;  689.631
363.777;   -1.167;   -7.147;  738.242
364.372;   -1.632;   -5.507;  737.314
364.967;   -4.869;   -6.386;  680.744
365.563;   -0.724;   -7.858;  815.567
366.158;   -4.659;   -8.517;  685.161
366.753;   -3.409;   -8.728;  649.263
367.348;   -4.555;   -7.677;  746.056
367.942;   -5.001;  -10.387;  697.298
368.537;   -5.995;   -7.187;  754.245
369.132;   -5.802;   -8.587;  703.428
369.727;  -10.351;   -8.606;  638.079
370.322;   -8.009;  -10.426;  580.186
370.917;   -8.738;   -5.776;  710.646
371.511;   -5.449;   -6.007;  861.834
372.106;   -8.197;   -6.686;  776.964
372.701;  -11.589;   -9.335;  585.988
373.296;   -5.669;   -6.777;  863.135
373.890;  -10.389;   -7.546;  647.840
374.485;  -12.561;   -8.755;  691.199
375.079;   -8.359;   -9.797;  738.685
375.674;   -7.262;   -6.327;  812.970
376.268;  -11.767;   -9.046;  691.759
376.863;  -16.922;   -7.993;  580.327
377.457;  -10.690;   -9.206;  662.490
378.052;  -12.518;   -5.345;  764.884
378.646;  -12.750;   -5.605;  741.167
379.240;  -13.805;   -6.825;  721.176
379.835;  -12.701;  -10.476;  636.978
380.429;  -13.970;   -8.676;  562.557
381.023;  -14.352;   -4.945;  779.205
381.617;  -16.066;   -8.094;  680.106
382.212;  -13.547;  -10.646;  685.303
382.806;  -12.059;   -8.136;  760.690
383.400;  -16.750;   -7.855;  672.281
383.994;  -16.796;   -8.125;  664.870
384.588;  -12.984;   -7.637;  697.701
385.182;  -10.634;   -7.458;  726.624
385.776;  -12.755;   -6.277;  706.875
386.370;  -15.789;   -7.485;  681.968
386.964;  -14.680;   -9.416;  684.155
387.558;  -12.650;   -8.518;  598.360
388.152;  -16.431;   -7.096;  681.959
388.745;  -13.913;   -7.656;  814.707
389.339;  -13.180;   -8.927;  747.642
389.933;  -12.063;   -9.538;  695.370
390.527;  -13.009;   -5.857;  859.029
391.120;  -19.693;   -9.455;  595.318
391.714;  -16.763;   -9.746;  711.633
392.308;  -12.881;   -7.857;  780.253
392.901;  -16.379;   -9.106;  642.460
393.495;  -17.966;  -10.365;  595.414
394.089;  -16.596;   -9.696;  760.452
394.682;  -16.186;   -7.016;  697.188
395.275;  -16.926;   -8.466;  719.927
395.869;  -17.915;   -8.985;  667.314
396.462;  -16.526;  -11.496;  616.609
397.056;  -12.196;   -7.838;  776.621
397.649;  -18.270;   -6.895;  731.575
398.242;  -13.652;   -5.017;  712.645
398.836;  -13.199;   -8.787;  766.408
399.429;  -14.160;   -8.967;  631.041
400.022;  -18.217;   -8.815;  665.902
400.615;  -15.560;   -6.276;  805.609
401.208;  -13.648;   -8.407;  691.451
401.802;  -15.764;   -7.296;  699.329
402.395;  -16.750;   -7.585;  683.502
402.988;  -17.275;   -8.015;  696.627
403.581;  -13.765;   -9.577;  646.878
404.174;  -11.329;   -7.588;  686.568
404.767;  -15.477;   -7.906;  638.583
405.360;  -16.895;   -7.875;  621.445
405.953;  -11.111;   -8.127;  759.034
406.545;  -10.214;   -7.198;  725.342
407.138;  -15.600;   -8.916;  618.350
407.731;  -13.788;   -9.767;  613.303
408.324;   -9.546;  -10.659;  660.554
408.917;  -10.844;   -8.068;  681.864
409.509;  -12.208;   -9.837;  740.396
410.102;  -14.781;   -8.146;  643.948
410.695;   -8.177;   -7.969;  665.758
411.287;   -9.238;   -8.579;  599.821
411.880;  -10.835;   -6.968;  585.421
412.472;  -12.774;   -9.487;  613.092
413.065;   -9.851;  -10.338;  629.408
413.657;   -8.366;   -9.169;  576.678
414.250;   -7.616;  -10.119;  646.681
414.842;   -9.724;   -9.938;  676.353
415.434;   -7.575;  -10.409;  570.463
416.027;   -3.459;   -9.591;  652.196
416.619;   -5.167;   -7.379;  713.400
417.211;   -5.594;   -9.159;  599.352
417.804;   -2.401;   -9.191;  628.499
418.396;   -6.296;   -8.159;  607.643
418.988;   -3.449;   -6.960;  659.238
419.580;   -7.444;  -11.389;  568.276
420.172;   -4.413;  -13.460;  536.196
420.764;    0.038;  -10.701;  672.482
421.356;   -1.586;   -8.961;  636.898
421.948;   -1.625;   -9.770;  677.661
422.540;    2.806;   -8.832;  680.027
423.132;    2.477;   -8.153;  600.641
423.724;   -1.035;   -8.481;  561.267
424.316;    1.188;   -9.261;  621.345
424.908;    5.491;   -9.643;  591.517
425.500;    5.576;   -8.663;  647.978
426.092;    6.128;   -8.503;  648.268
426.683;    5.000;  -10.522;  684.836
427.275;    7.771;  -11.734;  641.471
427.867;    9.552;  -10.264;  668.948
428.458;   10.538;   -7.644;  732.344
429.050;    8.828;   -7.853;  680.749
429.642;   10.392;   -8.904;  743.124
430.233;   11.330;  -10.795;  569.356
430.825;   13.190;   -7.665;  724.809
431.416;    9.963;   -8.843;  698.241
432.008;   14.252;   -9.885;  651.723
432.599;   14.582;   -9.966;  656.073
433.190;   11.196;   -9.164;  637.670
433.782;   10.990;   -8.584;  590.395
434.373;   19.006;   -8.296;  884.765
434.964;   16.524;   -9.896;  602.920
435.556;   14.749;   -8.255;  634.537
436.147;   17.792;   -8.075;  758.490
436.738;   18.016;   -9.716;  701.099
437.329;   22.748;   -7.318;  721.723
437.920;   17.074;   -6.694;  666.688
438.511;   16.172;   -9.644;  564.526
439.103;   22.816;   -9.427;  623.998
439.694;   25.243;  -10.748;  681.583
440.285;   26.114;   -7.997;  764.432
440.876;   24.364;  -10.046;  845.738
441.466;   23.268;  -13.467;  575.162
442.057;   28.812;   -9.329;  665.814
442.648;   27.657;   -7.707;  746.255
443.239;   26.658;   -9.017;  620.477
443.830;   30.473;  -10.279;  704.958
444.421;   32.625;  -12.630;  655.474
445.011;   29.297;   -8.697;  693.619
445.602;   28.708;   -7.787;  743.126
446.193;   30.891;  -13.329;  488.117
446.783;   35.385;   -9.171;  640.397
447.374;   31.812;   -7.457;  692.759
447.964;   31.736;   -9.277;  713.770
448.555;   40.952;   -9.041;  822.742
449.145;   36.783;   -8.969;  662.853
449.736;   37.702;   -6.809;  803.179
450.326;   37.979;   -7.229;  713.626
450.917;   42.332;  -11.391;  675.324
451.507;   42.080;   -9.501;  600.661
452.097;   42.577;   -8.460;  746.267
452.688;   44.043;  -10.080;  742.160
453.278;   43.267;  -12.861;  566.840
453.868;   48.064;   -8.372;  793.550
454.458;   46.526;   -8.131;  651.141
455.048;   46.766;   -8.520;  711.783
455.639;   48.295;  -13.632;  567.096
456.229;   52.119;  -10.143;  710.694
456.819;   53.180;   -9.163;  751.158
457.409;   54.170;   -8.652;  773.993
457.999;   57.184;   -9.933;  737.505
458.589;   56.279;  -10.363;  686.606
459.179;   56.018;  -10.633;  717.658
459.769;   55.070;  -12.442;  627.099
460.358;   60.218;   -9.844;  797.262
460.948;   59.638;   -9.924;  689.503
461.538;   61.711;  -10.484;  660.677
462.128;   59.287;  -10.703;  664.934
462.717;   66.538;  -11.486;  710.326
463.307;   68.934;  -10.767;  705.846
463.897;   65.350;   -8.814;  656.942
464.486;   64.780;   -8.182;  837.128
465.076;   68.715;   -9.985;  733.776
465.666;   72.786;  -10.447;  652.900
466.255;   71.246;   -7.754;  785.651
466.845;   70.030;  -10.884;  666.749
467.434;   73.256;  -12.525;  725.873
468.023;   73.516;  -11.456;  658.357
468.613;   71.837;   -9.173;  713.946
469.202;   76.354;   -9.306;  646.507
469.791;   80.076;   -8.917;  737.811
470.381;   81.710;   -9.657;  742.813
470.970;   82.884;   -9.947;  711.099
471.559;   82.223;   -9.256;  733.291
472.148;   85.321;  -13.397;  675.737
472.738;   87.304;   -9.928;  765.466
473.327;   87.296;  -10.897;  637.529
473.916;   86.696;   -8.526;  737.446
474.505;   91.878;  -11.078;  751.703
475.094;   95.093;   -9.559;  806.570
475.683;   94.174;   -8.838;  797.699
476.272;   95.197;  -10.198;  730.632
476.861;   98.374;  -11.489;  706.754
477.449;  104.367;  -10.721;  728.487
478.038;   98.482;   -9.818;  692.513
478.627;   99.760;   -9.887;  714.852
479.216;  106.398;  -10.030;  769.441
479.805;  109.379;   -9.401;  783.375
480.393;  109.627;   -5.739; 1008.945
480.982;  108.555;   -7.838;  874.501
481.571;  115.634;   -9.111;  858.333
482.159;  115.852;  -10.601;  705.386
482.748;  115.271;   -8.500;  821.385
483.336;  120.425;   -9.241;  858.209
483.925;  120.964;  -10.440;  774.373
484.513;  127.641;  -11.063;  758.962
485.102;  124.433;   -9.540;  810.965
485.690;  135.111;   -6.742; 1011.050
486.278;  135.997;   -8.442;  979.329
486.867;  135.924;  -10.472;  809.662
487.455;  138.644;   -8.811;  898.229
488.043;  141.100;  -10.721;  748.361
488.631;  150.163;  -10.393; 1005.079
489.220;  153.191;  -10.843;  908.626
489.808;  152.701;  -10.572;  741.415
490.396;  161.239;  -10.482;  914.645
490.984;  168.507;  -11.542;  830.161
491.572;  179.830;   -8.463;  940.315
492.160;  184.873;   -8.491;  919.081
492.748;  194.803;   -9.681;  884.341
493.336;  215.233;  -10.493; 1019.693
493.924;  240.845;   -9.354;  958.077
494.512;  275.010;   -9.132; 1066.638
495.100;  313.594;   -9.001; 1103.280
495.687;  366.879;  -11.924; 1206.373
496.275;  437.687;  -11.193; 1150.796
496.863;  537.346;   -9.241; 1281.171
497.451;  653.835;  -11.341; 1386.805
498.038;  757.098;  -11.364; 1556.729
498.626;  873.065;   -8.104; 1741.407
499.214; 1065.189;   -8.842; 2016.609
499.801; 1265.936;  -10.112; 2220.633
500.389; 1473.089;  -11.953; 2312.494
500.976; 1738.215;  -10.023; 2744.849
501.564; 2051.533;   -8.662; 3148.565
502.151; 2429.851;  -10.531; 3515.999
502.738; 2820.127;  -13.853; 3971.274
503.326; 3399.470;  -10.794; 4403.796
503.913; 4015.465;   -8.663; 5161.749
504.500; 4412.600;  -10.172; 5986.420
505.088; 4741.960;  -13.472; 6381.201
505.675; 5464.184;  -10.924; 6925.547
506.262; 6287.474;   -8.551; 7619.060
506.849; 7159.913;  -10.523; 8733.969
507.436; 7884.280;  -10.834; 9790.121
508.023; 8145.163;   -9.093; 9985.472
508.610; 8619.881;  -10.073;10434.618
509.197; 9218.405;   -9.500;11198.435
509.784;10571.019;  -13.242;12391.194
510.371;11386.125;  -10.964;13603.713
510.958;11245.181;   -9.772;14426.586
511.545;12369.113;   -7.842;15243.775
512.132;12659.597;  -12.184;15945.876
512.719;12802.743;   -9.733;16340.369
513.305;14838.731;   -9.172;18011.766
513.892;16556.412;   -9.581;19754.971
514.479;18576.479;  -10.253;20967.805
515.066;20977.387;   -8.183;22299.793
515.652;22363.336;   -9.253;22908.660
516.239;23370.537;   -9.412;23798.875
516.825;25864.482;  -11.153;25567.275
517.412;25878.867;  -10.263;28154.959
517.998;26259.457;   -8.802;28344.111
518.585;26047.934;  -10.401;27134.219
519.171;25813.939;  -12.744;27268.576
519.758;27759.658;  -11.793;28964.129
520.344;30076.648;   -8.912;30664.494
520.930;29847.549;  -10.901;32550.605
521.516;30620.902;  -12.034;35422.895
522.103;31773.971;  -10.473;38280.004
522.689;33516.844;   -8.311;37835.117
523.275;37601.207;  -10.691;37288.613
523.861;39198.078;  -11.193;37281.395
524.447;39795.449;  -11.484;37846.949
525.033;39608.730;   -7.702;38321.949
525.619;39186.262;  -11.241;38579.285
526.205;40540.551;  -12.152;40622.875
526.791;40142.105;  -11.423;42258.836
527.377;37131.672;   -7.981;42966.902
527.963;37776.031;   -9.450;42018.949
528.549;41988.648;  -11.351;42476.828
529.135;44052.164;  -10.202;41854.852
529.721;43024.961;   -8.672;41237.711
530.306;41141.355;   -9.111;41259.445
530.892;42640.383;  -11.252;41506.047
531.478;45143.133;  -10.432;43559.613
532.063;48022.848;  -10.721;47695.563
532.649;50127.918;   -7.450;50808.324
533.235;50562.551;  -11.811;51787.500
533.820;50701.516;   -9.383;52145.035
534.406;50188.996;   -9.400;51133.488
534.991;49283.578;   -8.861;49996.805
535.576;47227.871;  -10.612;48882.852
536.162;45090.281;   -7.322;46942.285
536.747;46116.789;   -9.360;45711.746
537.333;48677.254;  -10.450;48510.180
537.918;50646.148;  -12.610;50439.891
538.503;52471.941;  -12.132;50863.711
539.088;50051.324;  -10.831;50906.922
539.673;47166.801;  -11.220;52621.965
540.259;48554.188;  -11.481;52368.094
540.844;51705.328;  -11.462;50879.109
541.429;53502.500;   -7.869;52077.777
542.014;54506.336;  -11.859;52716.695
542.599;53719.219;  -11.061;52363.281
543.184;52798.180;  -12.300;53187.137
543.769;52068.293;   -9.369;54697.605
544.354;52409.520;  -12.020;53913.914
544.938;49357.961;  -10.350;49680.164
545.523;46254.520;  -10.841;47386.277
546.108;47812.934;   -8.579;49151.949
546.693;50569.469;   -8.818;51384.637
547.278;51652.355;  -11.331;51853.254
547.862;47862.395;  -10.292;51173.750
548.447;43534.840;   -8.349;51691.395
549.031;44618.547;  -10.838;52456.703
549.616;50171.895;  -11.681;52714.516
550.201;53735.832;  -11.140;52414.598
550.785;52046.570;   -8.649;52355.059
551.370;51864.070;  -11.889;54589.453
551.954;51746.098;  -11.239;58267.348
552.538;51305.754;   -8.850;59062.176
553.123;52670.082;  -10.829;58115.285
553.707;53015.363;   -8.887;56556.285
554.291;51726.977;  -10.430;56201.668
554.876;49460.457;   -9.799;55335.762
555.460;50534.680;  -10.018;54155.703
556.044;51937.898;   -7.307;53721.484
556.628;48780.109;  -12.229;53731.016
557.212;45315.137;   -9.820;54312.531
557.796;44630.102;   -9.109;53797.773
558.380;46648.598;   -9.707;56145.984
558.964;45550.762;  -10.980;57277.930
559.548;45944.996;  -12.010;56459.641
560.132;49456.504;   -7.928;54434.543
560.716;51031.723;  -10.247;54800.617
561.300;50712.047;  -11.250;57606.945
561.884;52546.777;  -10.568;58972.445
562.467;51095.000;   -9.727;57327.570
563.051;49688.207;  -11.847;54962.434
563.635;48396.109;  -10.747;52594.473
564.219;44836.496;  -13.108;50610.410
564.802;41576.164;  -11.417;49551.180
565.386;42754.555;  -10.457;48370.953
565.969;44538.078;   -8.959;48178.871
566.553;43977.125;  -10.328;49957.305
567.136;42848.090;  -10.257;50369.594
567.720;42604.266;  -10.186;49492.004
568.303;42825.391;  -10.027;50616.352
568.887;43840.852;  -10.397;50727.148
569.470;41930.859;   -8.185;51698.379
570.053;40768.113;  -11.596;52122.078
570.637;40531.105;  -11.378;52536.438
571.220;40285.621;   -9.138;51186.098
571.803;39520.180;   -7.675;51032.762
572.386;37966.355;   -8.976;49609.887
572.969;35586.102;  -12.477;48285.926
573.552;36730.793;   -9.767;47624.285
574.135;37301.488;   -8.175;45498.641
574.718;33803.645;  -11.096;41970.434
575.301;31914.785;  -11.966;41447.137
575.884;30025.924;  -12.836;40923.836
576.467;34077.621;   -9.116;45267.723
577.050;34994.945;  -10.536;48175.543
577.633;36085.680;  -11.027;47729.328
578.216;37166.977;   -9.946;47579.793
578.799;37214.047;   -9.645;47820.996
579.381;38169.691;   -9.446;48115.551
579.964;39768.508;  -12.217;47333.766
580.547;40572.875;  -10.586;46668.969
581.129;40600.473;   -8.374;44466.141
581.712;38279.652;  -10.434;44164.922
582.294;36181.555;  -10.896;46477.855
582.877;36376.242;   -8.906;48244.254
583.459;37370.738;   -9.994;47437.895
584.042;38140.301;  -10.084;46943.219
584.624;38454.098;  -13.534;46792.227
585.206;36514.762;  -12.716;46557.250
585.789;36691.578;  -11.614;45793.773
586.371;34574.609;  -10.203;43836.391
586.953;31922.949;  -10.314;42972.492
587.536;32462.428;   -9.776;42487.211
588.118;33960.934;   -9.821;42086.414
588.700;35236.500;  -10.073;43389.930
589.282;33700.309;  -12.395;43646.039
589.864;32953.137;  -11.514;43438.109
590.446;33064.938;  -10.803;43151.926
591.028;32359.594;  -11.043;42781.867
591.610;32614.043;  -13.244;42839.098
592.192;32464.111;  -11.095;42820.402
592.774;31008.471;  -10.823;40724.277
593.356;30164.857;  -11.052;39874.789
593.937;31476.363;  -11.664;39980.648
594.519;35219.117;  -10.454;42069.633
595.101;38187.246;  -10.322;42976.031
595.683;37441.543;  -10.042;44084.441
596.264;33669.078;  -14.334;43478.797
596.846;34798.145;  -10.863;43803.672
597.427;33850.480;   -9.901;42986.934
598.009;32377.150;  -10.911;42832.219
598.591;32970.445;  -10.483;42580.086
599.172;34512.035;   -9.663;43061.805
599.753;35329.168;  -10.631;41691.469
600.335;35567.395;   -9.371;40692.520
600.916;33634.879;  -13.992;39982.422
601.498;33139.313;   -8.352;40318.617
602.079;33790.320;   -8.411;40670.609
602.660;33482.707;  -10.841;41450.898
603.241;33089.883;  -12.963;41137.738
603.823;33711.148;  -11.523;38868.797
604.404;33451.566;  -11.881;38182.785
604.985;34142.441;  -11.721;38078.047
605.566;33855.508;   -9.293;38056.633
606.147;32535.359;  -10.940;37020.418
606.728;34166.676;  -11.840;37883.359
607.309;35077.316;  -11.781;38748.273
607.890;35332.063;  -11.262;38850.230
608.471;33628.418;  -10.111;37457.918
609.051;33364.746;   -7.709;36066.457
609.632;30801.125;  -12.409;35991.074
610.213;31144.393;  -10.811;37402.641
610.794;32562.049;  -11.630;38383.363
611.374;36108.750;   -8.030;40562.387
611.955;36183.137;  -10.809;38533.727
612.536;34632.305;  -10.531;36951.789
613.116;34526.492;  -12.820;37197.891
613.697;35608.730;  -11.419;38411.125
614.277;36607.094;   -9.768;38673.938
614.858;33321.863;  -10.251;37075.863
615.438;29818.580;  -11.981;35092.906
616.019;27684.221;   -8.978;33666.301
616.599;30155.170;  -12.219;34189.023
617.179;32358.109;  -14.170;36952.047
617.760;33143.141;   -9.211;39582.574
618.340;33212.188;   -9.018;38943.977
618.920;33600.039;   -9.249;37594.156
619.500;33808.285;  -12.728;37866.938
620.080;34210.434;  -12.939;37869.043
620.660;35295.582;  -11.586;36868.617
621.241;34990.809;  -11.538;36352.309
621.821;33725.047;  -11.398;35459.520
622.401;32307.262;  -10.179;35207.414
622.980;32324.732;  -11.587;35980.422
623.560;33853.809;  -12.888;37351.328
624.140;32050.859;  -13.149;34388.582
624.720;27700.908;   -9.928;32368.764
625.300;27150.453;  -10.869;32638.629
625.880;29784.879;   -8.617;34599.035
626.459;30816.629;  -12.138;36831.738
627.039;33437.363;  -12.267;38299.098
627.619;37028.484;   -7.476;38289.574
628.198;38692.617;  -11.347;37220.695
628.778;35878.457;  -11.678;37632.563
629.357;33039.367;  -12.438;38003.012
629.937;32267.016;   -9.576;38402.039
630.516;32108.092;  -11.096;37868.801
631.096;33026.570;  -11.828;35760.410
631.675;34365.492;  -11.565;35225.219
632.254;35090.320;  -11.845;35130.289
632.834;36636.609;  -11.545;35794.570
633.413;35964.750;  -10.887;35788.922
633.992;35515.480;  -10.175;34532.863
634.571;36171.738;   -9.704;33590.113
635.151;34627.699;  -10.815;34943.863
635.730;33298.313;  -11.617;35352.523
636.309;33103.070;  -10.836;35366.605
636.888;33846.465;   -9.755;36165.637
637.467;33986.664;  -11.684;37515.902
638.046;34087.309;  -11.987;39288.695
638.625;33615.840;  -10.455;38279.699
639.204;33326.730;  -11.234;37741.598
639.782;34126.770;  -12.023;38364.551
640.361;32418.863;  -11.506;36740.621
640.940;29412.900;  -12.316;34950.082
641.519;27462.791;  -11.616;34137.398
642.097;29821.910;   -9.266;35654.258
642.676;33653.379;  -12.936;35637.957
643.255;34333.285;   -9.966;36567.074
643.833;34979.824;   -8.916;37809.434
644.412;32797.402;  -10.936;37337.293
644.990;32059.080;  -12.176;37018.531
645.569;33031.230;  -12.246;36518.469
646.147;35815.637;  -12.107;36186.430
646.726;38424.965;  -12.937;36267.688
647.304;35330.809;  -12.547;36647.625
647.882;34202.586;  -12.597;39286.742
648.461;33482.500;   -9.427;39157.703
649.039;33566.539;   -8.937;35412.883
649.617;34503.508;  -11.067;34744.918
650.195;33173.633;  -10.657;35403.098
650.773;30522.316;  -10.097;35053.797
651.352;29847.725;  -11.887;33756.816
651.930;28747.016;  -13.557;31868.773
652.508;28714.943;  -11.767;33121.551
653.086;31623.691;  -10.777;33564.793
653.663;34409.926;  -12.067;34054.668
654.241;37008.285;  -14.918;35693.309
654.819;36624.352;  -11.788;36422.906
655.397;34405.117;  -11.268;38213.484
655.975;32595.799;  -11.738;39507.625
656.553;30728.813;  -11.018;39498.223
657.130;29459.602;  -12.848;40395.480
657.708;28343.912;  -10.098;39242.020
658.286;29534.209;  -11.678;38920.020
658.863;32179.725;  -11.498;40202.898
659.441;35002.816;  -11.008;39677.938
660.018;36838.996;  -11.048;40413.355
660.596;37597.973;  -12.058;39931.414
661.173;38193.895;  -14.158;39604.531
661.750;37416.957;  -12.298;39700.070
662.328;36839.758;  -10.699;39292.809
662.905;36485.391;  -12.119;38235.648
663.482;32612.941;  -11.829;36212.305
664.060;28698.598;  -11.009;35944.945
664.637;31805.557;  -10.369;35170.785
665.214;34444.988;  -10.459;34197.523
665.791;33661.559;  -12.599;34549.520
666.368;31071.350;  -12.919;35118.578
666.945;29252.090;  -10.699;36019.418
667.522;30309.029;  -11.359;36048.438
668.099;30843.348;  -13.529;36243.914
668.676;29616.145;  -10.229;35958.875
669.253;29108.902;   -9.279;37384.730
669.830;28617.676;  -11.370;36779.629
670.407;28524.234;  -10.950;35231.289
670.984;29563.102;  -12.850;35544.270
671.560;28399.889;   -8.440;35466.867
672.137;29386.721;  -13.520;34280.863
672.714;30978.412;  -13.620;34632.863
673.290;31413.641;  -10.450;35135.422
673.867;30312.920;  -10.960;36114.480
674.443;31274.646;  -13.300;36152.859
675.020;29464.135;  -12.370;35327.238
675.596;28765.789;  -11.250;35795.176
676.173;29277.070;  -11.080;35430.355
676.749;29071.316;  -13.220;33549.516
677.326;30112.703;  -13.000;32210.012
677.902;29804.836;  -12.701;32068.871
678.478;28357.719;  -12.801;32583.891
679.054;29123.689;   -8.601;32088.928
679.631;30205.408;  -12.631;30978.848
680.207;30969.822;   -9.451;33160.887
680.783;30323.223;  -11.701;35570.363
681.359;30845.539;  -12.701;36125.184
681.935;32825.125;  -13.271;35240.922
682.511;34758.668;  -10.791;34429.961
683.087;32660.373;  -10.791;34463.680
683.663;29273.227;   -8.121;34648.898
684.239;27024.063;  -13.261;34546.457
684.815;27736.623;  -10.581;35586.375
685.390;29667.654;   -9.961;35821.895
685.966;29215.133;  -11.182;35085.871
686.542;28346.768;  -13.512;34198.230
687.118;26340.902;  -11.472;32847.707
687.693;25267.469;  -10.152;32794.027
688.269;25749.545;  -14.442;33072.367
688.844;24815.641;  -11.852;33141.664
689.420;23732.525;  -13.942;33965.742
689.995;24904.459;   -9.702;34655.523
690.571;26649.953;  -11.312;33576.742
691.146;26875.633;  -14.332;32657.219
691.722;26544.594;  -11.192;32526.979
692.297;27324.170;  -10.962;33014.617
692.872;28848.570;  -11.082;34012.254
693.448;29608.662;  -14.732;34237.434
694.023;28925.615;  -12.363;34142.672
694.598;27037.662;  -12.393;34132.031
695.173;27593.344;  -11.023;34205.250
695.748;29140.182;  -12.743;32882.488
696.323;28591.729;  -11.103;32864.906
696.898;27817.564;   -8.123;33170.004
697.473;27497.746;  -12.603;32432.984
698.048;27826.447;  -12.553;31649.303
698.623;29093.828;  -12.573;30778.141
699.198;28812.377;  -12.743;31140.119
699.773;28030.709;  -12.843;31764.299
700.348;28606.266;  -16.683;31780.816
700.922;29879.814;  -11.403;32046.375
701.497;31360.453;  -11.253;32603.574
702.072;30514.619;  -10.044;34799.871
702.646;29711.244;  -13.054;35793.172
703.221;30397.123;  -11.414;35201.590
703.795;29920.150;  -10.644;34764.527
704.370;27969.453;  -13.484;34307.367
704.944;27055.580;  -12.144;33509.887
705.519;26574.744;  -12.024;31388.584
706.093;28201.498;  -11.234;31340.104
706.668;29329.691;   -9.874;32630.281
707.242;28335.484;  -12.404;32728.779
707.816;26711.113;  -10.644;32947.238
708.390;26294.635;  -11.174;33277.855
708.965;26343.543;  -10.324;33834.336
709.539;26965.178;  -12.014;33709.273
710.113;27245.717;  -12.295;33044.313
710.687;28696.131;  -10.965;31953.992
711.261;30672.406;  -13.685;30505.949
711.835;29286.904;  -15.335;30262.369
712.409;28035.023;  -13.785;31254.447
712.983;28207.777;  -10.525;32754.986
713.557;26517.305;  -13.175;34018.824
714.131;26423.160;  -13.245;34579.625
714.704;29535.451;  -13.175;33890.262
715.278;31866.533;  -11.545;33531.102
715.852;30432.254;  -10.975;33601.660
716.425;28858.572;  -10.075;33515.117
716.999;29317.141;  -12.185;33185.555
717.573;31546.412;   -9.685;33905.996
718.146;32355.539;  -10.516;35199.293
718.720;31034.115;  -12.106;35060.551
719.293;29421.840;  -12.386;34973.230
719.867;29334.527;  -12.456;36394.449
720.440;29133.785;  -10.686;36663.008
721.013;29139.063;  -12.596;35102.426
721.587;30659.580;  -13.956;33985.266
722.160;32798.863;   -9.806;33524.965
722.733;33569.488;  -11.676;32987.043
723.306;32987.875;  -14.276;33066.301
723.880;30723.678;  -12.126;33399.500
724.453;28292.131;  -10.156;33468.297
725.026;27911.908;  -12.956;33816.637
725.599;28042.209;  -11.676;32797.996
726.172;28433.211;  -12.337;33187.434
726.745;28604.441;  -11.277;35136.613
727.318;28591.563;  -11.927;35751.730
727.891;27823.355;  -13.607;35890.430
728.463;25577.635;  -11.327;34822.090
729.036;25404.152;  -11.917;32895.086
729.609;27061.201;  -12.697;31823.225
730.182;27974.482;  -11.787;31445.283
730.754;27647.119;  -12.957;32373.223
731.327;27376.119;  -11.017;33676.820
731.900;27117.887;  -12.797;33417.000
732.472;26420.242;  -10.677;31978.498
733.045;25777.408;  -12.797;30368.777
733.617;25906.039;  -13.908;30574.215
734.190;24864.875;  -12.258;31280.975
734.762;24956.186;  -13.438;31674.412
735.334;26210.656;  -11.758;31247.291
735.907;28801.586;  -11.158;29876.211
736.479;32012.182;  -11.258;29808.488
737.051;32623.266;  -10.918;30233.547
737.623;31623.572;  -11.038;31469.086
738.195;32784.082;  -12.188;31784.225
738.768;30414.338;  -11.378;32120.523
739.340;24634.303;  -12.598;32094.342
739.912;22943.160;  -11.568;31312.680
740.484;24746.326;   -9.348;31946.238
741.056;27378.172;  -12.628;32984.059
741.628;29209.824;  -13.349;33897.715
742.199;28107.158;  -11.309;33213.016
742.771;28372.121;  -12.699;31369.113
743.343;29333.033;  -11.919;31865.473
743.915;29386.379;  -11.679;32388.631
744.487;28128.506;  -12.249;31079.568
745.058;25854.039;  -11.119;30570.107
745.630;24522.070;   -9.439;29970.127
746.201;23659.537;  -11.949;29186.766
746.773;23762.682;  -12.639;28805.723
747.344;24959.014;  -11.039;29591.223
747.916;27075.631;  -12.549;31412.201
748.487;26114.982;  -12.659;32194.898
749.059;24474.031;  -13.059;32533.719
749.630;23668.896;  -12.080;32158.518
750.201;22019.377;  -13.100;30855.395
750.773;21240.078;  -15.310;28622.555
751.344;20899.801;  -12.240;28405.732
751.915;21021.941;  -11.960;28461.551
752.486;20201.938;  -13.200;27842.850
753.057;18863.367;  -15.230;27845.008
753.628;19914.340;  -13.130;27728.107
754.199;22384.990;  -12.720;27381.086
754.770;22558.408;  -10.680;25882.203
755.341;21173.129;  -11.010;25886.184
755.912;20714.584;  -12.990;26050.861
756.483;20127.787;  -11.110;26798.779
757.054;19676.324;  -12.190;27048.238
757.625;19618.088;  -13.981;26294.838
758.195;19661.457;  -11.041;26142.076
758.766;20726.662;  -11.861;26392.234
759.337;21168.309;  -11.461;26334.594
759.907;20634.768;  -15.001;27579.652
760.478;19485.318;   -9.681;28352.770
761.048;18326.563;  -12.421;27325.088
761.619;19173.602;  -11.761;26460.428
762.189;19699.594;  -12.391;26029.826
762.760;18991.400;  -10.201;26430.145
763.330;19519.164;  -10.811;26670.902
763.900;20158.865;  -10.261;26603.021
764.471;19221.719;  -13.061;25542.740
765.041;17820.492;  -11.051;24358.459
765.611;17646.471;  -11.032;23991.297
766.181;17832.811;  -10.532;24470.236
766.751;18241.932;  -13.502;24845.975
767.321;19445.523;  -11.392;24533.633
767.891;21203.469;  -11.522;24916.492
768.461;22506.006;  -13.672;24776.771
769.031;20098.342;  -14.652;24757.988
769.601;17261.033;  -10.182;24181.088
770.171;16100.348;  -11.752;23670.387
770.741;15192.499;  -12.272;22960.045
771.311;14905.893;  -13.112;22917.523
771.880;15838.102;  -14.122;23562.941
772.450;16581.447;  -11.782;24216.500
773.020;16735.088;  -12.642;24140.398
773.589;15844.124;  -13.043;24414.857
774.159;15224.331;  -11.783;23858.717
774.729;16015.012;  -13.473;22942.135
775.298;16821.342;  -14.523;22324.033
775.867;16485.574;  -12.013;21140.313
776.437;15828.723;  -12.113;20838.092
777.006;15495.919;  -13.543;20599.510
777.576;16085.696;  -12.523;20508.809
778.145;16228.922;  -12.173;20732.947
778.714;15579.991;  -12.153;21062.465
779.283;14821.216;  -11.833;20949.664
779.853;14906.915;  -13.483;20508.623
780.422;15054.247;  -12.933;20649.082
780.991;14642.747;  -13.173;21527.520
781.560;14429.229;  -10.224;22632.658
782.129;14912.530;  -12.684;23048.277
782.698;14914.391;  -11.284;23438.555
783.267;14729.021;  -11.684;23267.734
783.836;14486.780;  -10.974;22415.133
784.404;14081.024;  -13.534;20443.152
784.973;13232.121;  -16.734;19699.150
785.542;12079.581;  -12.594;19763.828
786.111;11725.100;  -11.644;20341.408
786.679;12730.015;  -11.384;20207.967
787.248;12982.362;  -12.014;19516.465
787.817;11848.630;  -12.804;18900.363
788.385;10652.366;  -11.994;17879.121
788.954;10986.273;  -12.564;17658.301
789.522;11967.366;  -12.225;17788.879
790.090;11965.096;  -13.775;18118.277
790.659;11751.965;  -12.485;18338.736
791.227;12406.162;  -12.295;18508.615
791.795;13072.117;  -13.415;17898.254
792.364;13585.029;  -12.995;17295.133
792.932;13366.227;   -8.365;16822.051
793.500;12274.883;  -11.925;17040.148
794.068;12391.125;  -13.245;17179.787
794.636;13150.065;  -13.815;16664.246
795.204;13186.374;  -13.375;16524.545
795.772;12975.548;  -12.125;17274.564
796.340;12166.428;  -13.855;17891.002
796.908;10559.340;  -13.456;17648.561
797.476; 9722.159;  -13.116;17064.080
798.044; 9964.625;  -13.226;16672.777
798.612;10305.051;  -11.236;17023.996
799.180;10210.396;  -10.476;16561.615
799.747; 9792.215;  -11.746;15962.773
800.315; 9333.289;  -12.366;15296.992
800.883; 8737.740;  -14.616;14801.771
801.450; 8835.227;  -11.996;14534.430
802.018; 9698.092;  -11.206;14173.248
802.585;10150.882;  -12.466;14029.547
803.153; 9662.538;  -12.846;13836.846
803.720; 9030.026;  -12.136;13567.324
804.287; 9148.593;  -10.966;13360.622
804.855; 9274.941;   -9.797;13681.981
805.422; 8533.230;  -13.037;13536.560
805.989; 7848.646;  -12.697;13355.958
806.556; 8044.654;  -11.737;13747.896
807.124; 8759.902;  -11.997;13987.376
807.691; 8550.117;  -13.997;14038.674
808.258; 7916.505;  -10.927;14120.152
808.825; 8119.405;  -13.727;13860.111
809.392; 8176.901;  -11.847;13268.790
809.959; 8163.565;  -14.217;12680.389
810.526; 8106.211;   -8.277;12427.308
811.093; 8231.455;   -9.647;12030.105
811.659; 8273.486;  -10.987;11653.664
812.226; 7675.135;  -13.447;11637.183
812.793; 7195.416;  -14.418;11611.521
813.360; 7360.781;  -13.908;11885.181
813.926; 7854.228;  -12.918;12770.539
814.493; 8081.864;  -14.888;12677.638
815.060; 7664.202;  -12.758;11974.336
815.626; 7356.795;  -13.478;11594.715
816.193; 7301.271;  -13.898;11579.474
816.759; 7410.551;  -13.588;11666.972
817.325; 7409.548;  -12.018;11325.530
817.892; 7065.378;  -14.068;11105.369
818.458; 7097.711;  -13.458;10843.928
819.024; 6970.750;  -11.968;10714.406
819.591; 6730.833;  -11.028;10469.165
820.157; 6817.928;  -12.088;10235.523
820.723; 6931.283;  -12.599;10847.563
821.289; 6647.908;  -10.419;11040.980
821.855; 6435.069;  -10.939;10357.100
822.421; 6410.530;  -12.539; 9978.918
822.987; 6340.417;  -13.259; 9754.177
823.553; 6114.003;  -15.369;10065.755
824.119; 5961.830;  -10.779;10036.294
824.685; 5949.385;   -9.999;10029.192
825.251; 5810.994;  -11.819;10199.230
825.816; 5728.309;  -13.369; 9820.189
826.382; 5589.824;  -12.679; 9297.248
826.948; 5168.285;  -11.199; 9381.347
827.513; 4997.035;  -11.179; 9450.726
828.079; 5116.280;  -13.489; 9472.444
828.645; 5256.202;  -12.500; 9292.643
829.210; 5253.979;  -15.120; 9065.341
829.776; 5184.266;  -12.590; 9132.620
830.341; 5268.590;  -11.540; 9092.878
830.906; 5615.793;  -12.400; 9078.557
831.472; 5594.801;  -12.720; 8534.535
832.037; 4909.213;  -11.490; 8677.874
832.602; 4295.706;  -14.380; 8628.692
833.167; 4058.304;  -12.780; 8879.031
833.733; 4274.900;  -11.100; 9189.790
834.298; 4594.958;  -12.080; 9052.608
834.863; 4428.290;  -13.910; 8895.087
835.428; 4156.976;  -13.470; 8824.266
835.993; 4006.919;  -11.760; 8845.385
836.558; 4163.611;  -12.731; 8888.563
837.123; 4309.181;  -12.431; 8966.582
837.688; 4161.611;  -11.241; 8617.860
838.253; 3998.322;  -13.681; 8590.699
838.817; 4118.162;  -12.531; 8443.797
839.382; 4253.450;  -12.671; 8799.356
839.947; 4319.640;  -11.541; 8810.595
840.511; 4450.519;  -12.021; 8796.394
841.076; 4513.032;  -13.071; 8347.231
841.641; 4694.664;  -11.411; 8224.330
842.205; 4912.093;  -13.671; 8223.349
842.770; 4817.749;  -11.291; 8622.107
843.334; 4553.708;  -12.951; 8410.386
843.898; 4304.532;  -11.221; 8337.465
844.463; 4353.958;  -11.322; 8506.283
845.027; 4354.466;  -11.412; 8280.962
845.591; 4128.693;  -11.512; 8231.141
846.156; 3990.364;  -14.042; 7969.179
846.720; 4036.447;  -12.152; 7768.278
847.284; 3859.945;  -10.922; 7630.957
847.848; 3682.105;  -10.962; 7472.395
848.412; 3486.644;  -14.612; 7437.394
848.976; 3492.304;  -11.492; 7674.592
849.540; 3760.326;   -9.172; 7836.011
850.104; 3954.222;  -11.232; 7913.669
850.668; 3889.957;  -15.182; 7694.508
851.232; 3773.168;  -15.332; 7756.887
851.796; 3727.193;  -13.703; 7926.545
852.359; 3803.392;  -11.113; 7827.844
852.923; 3907.550;  -11.843; 7641.163
853.487; 3892.048;  -11.173; 7342.501
854.050; 3772.526;  -13.443; 7042.820
854.614; 3713.089;  -13.823; 7151.338
855.177; 3634.968;  -16.393; 7105.077
855.741; 3597.267;  -11.693; 6989.675
856.304; 3577.493;  -10.843; 6596.634
856.868; 3471.451;  -13.783; 6356.272
857.431; 3248.118;  -11.953; 6468.571
857.995; 2987.595;  -13.683; 6373.210
858.558; 2955.645;  -11.433; 6324.448
859.121; 3073.642;  -12.493; 6408.327
859.684; 3012.212;  -12.384; 6347.886
860.247; 2704.990;  -14.774; 6321.264
860.810; 2454.106;  -13.154; 6301.903
861.374; 2450.049;  -11.264; 6607.881
861.937; 2520.546;  -15.424; 6408.200
862.500; 2510.507;  -12.854; 6572.639
863.062; 2486.066;  -12.344; 6387.297
863.625; 2482.627;  -13.314; 6190.836
864.188; 2561.417;  -14.724; 5807.254
864.751; 2742.649;  -13.464; 5682.413
865.314; 3081.163;  -11.684; 5547.492
865.876; 3298.751;  -11.104; 5500.150
866.439; 3246.592;  -12.344; 5415.909
867.002; 3068.622;  -13.494; 5501.567
867.564; 2805.490;  -10.935; 5413.946
868.127; 2615.828;  -12.665; 5160.325
868.689; 2577.756;  -14.515; 5133.183
869.252; 2632.043;  -13.425; 5252.382
869.814; 2797.566;  -11.595; 5297.141
870.377; 2895.384;  -12.175; 5390.919
870.939; 2781.849;  -10.265; 5599.898
871.501; 2635.183;  -12.375; 5248.336
872.063; 2544.369;  -14.355; 4854.235
872.626; 2460.060;  -14.435; 4817.074
873.188; 2363.233;  -12.415; 4987.732
873.750; 2382.599;  -14.555; 4868.651
874.312; 2311.997;  -11.185; 4779.330
874.874; 2124.875;  -12.715; 4866.348
875.436; 2037.020;  -13.196; 4718.887
875.998; 2026.932;  -11.426; 4660.005
876.560; 1943.228;   -9.786; 4462.964
877.122; 1879.242;  -12.796; 4145.042
877.683; 1859.096;  -13.226; 4056.481
878.245; 1846.614;  -12.036; 3950.740
878.807; 1841.696;  -11.536; 4058.958
879.369; 1825.092;  -10.806; 3954.677
879.930; 1725.797;  -13.946; 3941.495
880.492; 1584.205;  -11.876; 4067.014
881.053; 1545.477;  -13.216; 3859.633
881.615; 1597.391;  -12.226; 3776.071
882.176; 1629.501;  -12.946; 3734.750
882.738; 1571.960;  -10.736; 3678.489
883.299; 1502.683;  -12.057; 3405.407
883.860; 1471.080;  -12.677; 3351.106
884.422; 1432.385;  -14.097; 3394.044
884.983; 1331.754;  -13.667; 3166.443
885.544; 1192.084;  -10.717; 3189.802
886.105; 1090.014;  -14.357; 3160.360
886.666; 1066.196;  -14.287; 3093.059
887.227; 1068.640;  -14.297; 2941.957
887.788; 1060.279;  -13.137; 2974.836
888.349;  981.678;  -14.637; 2721.214
888.910;  902.017;  -12.247; 2696.493
889.471;  892.505;  -10.577; 2560.172
890.032;  886.556;  -12.937; 2558.190
890.593;  839.696;  -12.487; 2567.669
891.153;  774.747;  -11.898; 2460.307
891.714;  762.698;  -14.278; 2372.046
892.275;  767.702;  -13.308; 2309.505
892.835;  718.666;  -12.058; 2382.543
893.396;  644.809;  -15.268; 2295.502
893.956;  592.512;  -13.278; 2162.420
894.517;  558.065;  -11.968; 2125.439
895.077;  547.095;  -12.798; 2086.978
895.638;  525.934;  -11.908; 2126.316
896.198;  500.771;  -13.288; 1838.275
896.758;  477.615;  -12.198; 1892.813
897.319;  452.320;  -13.048; 1792.232
897.879;  415.050;  -13.718; 1762.751
898.439;  379.155;  -14.138; 1661.149
898.999;  368.759;  -13.659; 1781.468
899.559;  358.154;  -14.699; 1703.347
900.119;  336.336;  -14.339; 1537.525
900.679;  312.539;  -11.789; 1638.384
901.239;  290.427;  -13.629; 1527.902
901.799;  276.227;  -13.679; 1456.441
902.359;  263.533;  -13.679; 1357.140
902.919;  251.985;  -14.159; 1331.118
903.479;  242.509;  -13.419; 1317.257
904.038;  233.048;  -14.899; 1262.595
904.598;  220.865;  -14.339; 1152.034
905.158;  214.718;  -13.959; 1240.893
905.717;  210.839;  -12.749; 1233.691
906.277;  204.653;  -11.889; 1217.330
906.836;  197.499;  -12.870; 1222.408
907.396;  194.690;  -11.790; 1193.047
907.955;  191.873;  -13.750; 1182.526
908.515;  186.602;  -14.760; 1099.364
909.074;  179.116;  -12.540; 1092.863
909.633;  173.733;  -12.120; 1069.121
910.192;  170.863;  -12.550; 1196.460
910.752;  169.099;  -12.760; 1029.960
911.311;  166.763;  -14.750; 1009.780
911.870;  162.511;  -13.860;  971.460
912.429;  160.390;  -13.480; 1094.080
912.988;  157.047;  -12.370; 1081.060
913.547;  152.180;  -14.670;  940.380
914.106;  149.711;  -12.800;  999.420
914.665;  147.969;  -11.370;  984.020
915.224;  145.778;  -11.430; 1035.760
915.782;  144.913;  -12.260;  922.560
916.341;  146.606;  -12.540; 1049.840
916.900;  142.901;  -12.540;  925.260
917.458;  142.786;  -13.480;  884.220
918.017;  142.291;  -12.470;  942.600
918.576;  140.835;  -13.450;  904.440
919.134;  139.090;  -12.890;  837.980
919.693;  137.330;  -15.480;  893.060
920.251;  135.157;  -14.420;  876.500
920.809;  134.889;  -12.170;  839.580
921.368;  134.781;  -13.650;  885.360
921.926;  134.552;  -12.750;  842.940
922.484;  134.970;  -14.150;  903.360
923.042;  135.460;  -15.100;  880.340
923.601;  139.292;  -10.990;  998.680
924.159;  138.786;  -12.470;  935.560
924.717;  138.227;  -15.640;  841.080
925.275;  139.026;  -12.380;  903.240
925.833;  137.905;  -12.710;  779.320
926.391;  139.973;  -11.200;  938.380
926.949;  140.100;  -16.000;  857.680
927.506;  142.476;  -12.260;  903.500
928.064;  142.552;  -11.300;  877.580
928.622;  143.063;  -13.750;  880.100
929.180;  142.235;  -15.290;  814.180
929.737;  140.499;  -14.500;  808.540
930.295;  142.591;  -10.630;  928.480
930.853;  145.078;  -14.590;  849.100
931.410;  147.184;  -14.450;  821.120
931.968;  150.421;  -14.390;  940.660
932.525;  150.720;  -13.050;  909.380
933.082;  150.105;  -15.620;  811.440
933.640;  152.339;  -15.650;  925.900
934.197;  155.347;  -13.610;  886.360
934.754;  158.947;  -13.320;  897.780
935.312;  161.557;  -13.370;  863.340
935.869;  165.752;  -12.780; 1012.980
936.426;  163.290;  -14.480;  872.800
936.983;  164.349;  -13.180;  889.020
937.540;  165.512;  -15.710;  838.280
938.097;  167.635;  -14.980;  940.120
938.654;  169.054;  -13.060;  898.860
939.211;  169.212;  -12.760;  952.480
939.768;  169.215;  -16.230;  915.420
940.324;  169.627;  -10.940;  904.200
940.881;  168.571;  -12.570;  878.500
941.438;  167.681;  -13.650; 1021.200
941.995;  167.231;  -13.300;  992.560
942.551;  168.884;  -15.800;  875.620
943.108;  167.925;  -14.180;  937.920
943.664;  167.887;  -13.890;  869.340
944.221;  171.768;  -12.640; 1088.140
944.777;  169.480;  -14.700;  869.680
945.334;  168.135;  -13.010;  884.840
945.890;  169.160;  -13.480;  946.480
946.446;  169.409;  -14.920;  947.020
947.003;  168.414;  -13.860;  964.940
947.559;  166.942;  -12.000; 1063.040
948.115;  167.535;  -10.510; 1026.540
948.671;  167.293;  -12.760;  967.300
949.227;  163.596;  -15.390;  859.560
949.783;  160.052;  -15.570;  858.900
950.339;  160.131;  -12.800;  991.000
950.895;  157.729;  -13.780; 1023.840
951.451;  156.730;  -13.810;  925.280
952.007;  159.168;  -12.390;  998.540
952.563;  159.065;  -11.980;  937.780
953.118;  156.901;  -14.070;  904.940
953.674;  158.230;  -14.140;  935.780
954.230;  162.274;  -12.680;  949.640
954.785;  164.879;  -12.770;  936.640
955.341;  161.114;  -11.450;  998.160
955.897;  153.300;  -15.350;  834.660
956.452;  149.608;  -14.200;  953.840
957.008;  144.975;  -10.820; 1083.640
957.563;  143.464;  -13.200; 1009.540
958.118;  142.822;  -14.460;  877.700
958.674;  143.553;  -13.840;  946.780
959.229;  142.737;  -10.670; 1013.980
959.784;  142.870;  -17.040;  832.400
960.339;  145.536;  -12.970; 1001.280
960.894;  148.183;  -12.700;  963.760
961.449;  152.038;  -13.790;  859.960
962.004;  159.561;  -11.760; 1212.840
962.559;  156.424;  -14.840;  860.140
963.114;  150.583;  -14.530;  742.480
963.669;  149.644;  -12.780;  915.500
964.224;  144.885;  -14.330;  874.340
964.779;  139.452;  -14.380;  828.420
965.334;  135.969;  -12.460; 1017.860
965.888;  131.302;  -13.490;  875.360
966.443;  130.591;  -14.140;  972.380
966.998;  128.386;  -16.240;  819.460
967.552;  126.556;  -12.730;  908.380
968.107;  123.672;  -14.510;  868.300
968.661;  124.441;  -11.850;  922.440
969.216;  122.667;  -14.370;  856.280
969.770;  120.200;  -13.010;  917.200
970.324;  119.574;  -12.460;  923.140
970.879;  120.246;  -11.580;  947.180
971.433;  121.701;  -13.130;  952.720
971.987;  119.238;  -12.360;  895.340
972.541;  117.127;  -14.330;  917.100
973.095;  114.566;  -13.310; 1009.460
973.649;  109.976;  -15.830;  809.480
974.203;  109.583;  -15.830;  829.040
974.757;  112.359;  -13.480;  855.220
975.311;  115.119;  -13.720;  872.600
975.865;  116.577;  -15.780;  881.820
976.419;  115.195;  -14.290;  857.400
976.973;  112.997;  -13.210;  849.620
977.526;  110.271;  -12.300;  949.920
978.080;  105.459;  -14.840;  796.780
978.634;  104.053;  -13.100;  921.320
979.187;   99.041;  -12.300;  905.400
979.741;  100.426;  -12.020; 1018.380
980.294;   96.865;  -14.590;  789.160
980.848;   95.795;  -14.390;  717.220
981.401;   96.397;  -14.280;  816.540
981.955;   95.624;  -11.920;  844.300
982.508;   92.759;  -15.790;  746.340
983.061;   93.133;  -12.070;  915.260
983.615;   89.319;  -13.260;  798.800
984.168;   87.388;  -15.540;  770.080
984.721;   86.409;  -13.230;  880.760
985.274;   84.733;  -11.820;  867.500
985.827;   81.428;  -13.510;  834.220
986.380;   80.306;  -14.840;  721.340
986.933;   82.037;  -13.970;  864.800
987.486;   81.379;  -12.450;  861.920
988.039;   78.102;  -11.170;  863.100
988.591;   75.524;  -13.070;  893.260
989.144;   73.006;  -15.530;  737.260
989.697;   71.640;  -14.300;  758.740
990.250;   69.990;  -13.310;  858.100
990.802;   68.052;  -14.490;  755.860
991.355;   69.942;  -12.980;  974.880
991.907;   67.921;  -13.715;  864.320
992.460;   65.900;  -14.450;  753.760
993.012;   63.836;  -12.590;  749.540
993.565;   61.777;  -15.180;  711.360
994.117;   63.053;  -11.630;  950.780
994.669;   60.226;  -13.760;  701.320
995.221;   60.306;  -12.710;  791.920
995.774;   59.683;  -14.620;  787.580
996.326;   58.541;  -13.150;  740.220
996.878;   58.792;  -12.880;  838.420
997.430;   56.754;  -14.580;  699.860
997.982;   55.428;  -14.030;  750.140
998.534;   55.253;  -12.190;  739.060
999.086;   53.438;  -12.990;  738.220
999.638;   52.355;  -13.180;  661.380
1000.190;   51.570;  -14.970;  699.320
1000.741;   50.905;  -12.200;  742.700
1001.293;   50.935;  -13.400;  686.020
1001.845;   50.068;  -14.490;  676.640
1002.396;   50.630;  -15.280;  743.400
1002.948;   49.216;  -12.380;  737.400
1003.500;   48.286;  -13.260;  723.780
1004.051;   49.505;  -13.730;  907.580
1004.603;   50.102;  -12.300;  791.820
1005.154;   45.486;  -15.330;  608.980
1005.705;   44.588;  -12.800;  723.960
1006.257;   43.833;  -13.900;  707.220
1006.808;   42.510;  -14.430;  685.460
1007.359;   42.239;  -12.010;  763.240
1007.910;   40.790;  -12.690;  646.640
1008.461;   41.157;  -13.610;  732.940
1009.013;   39.796;  -14.990;  588.340
1009.564;   41.271;  -11.860;  793.520
1010.115;   37.723;  -12.640;  597.040
1010.665;   38.105;  -14.570;  602.160
1011.216;   38.492;  -15.190;  667.920
1011.767;   38.459;  -13.470;  697.920
1012.318;   38.533;  -13.760;  736.980
1012.869;   37.477;  -15.950;  679.000
1013.419;   37.300;  -15.880;  603.120
1013.970;   37.182;  -14.540;  666.640
1014.521;   36.393;  -13.220;  620.620
1015.071;   36.835;  -15.020;  670.380
1015.622;   36.028;  -17.510;  635.460
1016.172;   35.639;  -14.130;  596.820
1016.723;   35.302;  -14.220;  614.380
1017.273;   34.978;  -15.370;  604.160
1017.823;   34.829;  -15.290;  650.340
1018.374;   34.927;  -13.420;  611.760
1018.924;   34.206;  -11.740;  716.880
1019.474;   34.409;  -12.250;  718.880
1020.024;   34.007;  -15.850;  657.580
1020.574;   34.285;  -13.280;  726.160
1021.124;   34.303;  -13.560;  673.580
1021.674;   32.367;  -13.790;  559.120
1022.224;   34.012;  -14.610;  708.940
1022.774;   33.009;  -13.100;  668.820
1023.324;   33.415;  -11.470;  753.520
1023.874;   35.026;  -11.990;  875.760
1024.423;   31.416;  -14.550;  613.700
1024.973;   31.843;  -14.440;  610.760
1025.523;   30.837;  -13.250;  620.960
1026.072;   31.221;  -15.200;  606.420
1026.622;   30.240;  -14.590;  675.740
1027.172;   32.389;  -11.080;  715.660
1027.721;   29.872;  -14.010;  601.220
1028.270;   30.896;  -13.690;  663.400
1028.820;   30.631;  -15.380;  638.080
1029.369;   30.184;  -14.980;  612.700
1029.918;   29.648;  -13.100;  649.840
1030.468;   29.009;  -13.680;  564.780
1031.017;   30.204;  -13.770;  634.800
1031.566;   28.712;  -14.100;  608.900
1032.115;   29.526;  -11.770;  694.500
1032.664;   28.313;  -14.940;  596.480
1033.213;   29.886;  -13.370;  735.420
1033.762;   28.148;  -13.660;  635.620
1034.311;   28.359;  -13.650;  677.220
1034.860;   28.260;  -13.820;  691.000
1035.408;   28.908;  -12.860;  722.720
1035.957;   28.686;  -13.060;  719.540
1036.506;   25.439;  -14.510;  530.800
1037.055;   29.164;  -13.470;  844.320
1037.603;   26.851;  -14.800;  664.000
1038.152;   25.657;  -14.190;  534.760
1038.700;   25.545;  -11.810;  585.740
1039.249;   26.392;  -12.850;  681.220
1039.797;   26.569;  -14.610;  633.360
1040.345;   26.638;  -15.220;  705.420
1040.894;   26.040;  -13.480;  625.300
1041.442;   25.544;  -13.310;  632.200
1041.990;   25.132;  -14.510;  559.160
1042.538;   24.242;  -15.700;  536.180
1043.087;   24.606;  -13.910;  570.860
1043.635;   26.650;  -13.620;  670.500
1044.183;   24.885;  -14.230;  586.400
1044.731;   24.761;  -13.730;  576.000
1045.279;   24.138;  -13.970;  674.920
1045.827;   27.424;  -10.750;  892.400
1046.374;   22.636;  -15.230;  515.420
1046.922;   22.446;  -15.390;  590.580
1047.470;   24.388;  -12.320;  691.300
1048.018;   24.033;  -13.230;  647.960
1048.565;   24.933;  -13.390;  708.600
1049.113;   22.840;  -15.030;  557.000
1049.660;   22.721;  -12.540;  629.660
1050.208;   23.738;  -15.040;  675.640
1050.755;   22.763;  -14.680;  606.580
1051.303;   23.117;  -13.610;  686.820
1051.850;   22.632;  -14.340;  635.120
1052.397;   20.555;  -16.330;  473.960
1052.945;   21.646;  -15.710;  617.760
1053.492;   22.695;  -12.320;  741.840
1054.039;   22.688;  -13.730;  720.180
1054.586;   21.710;  -16.140;  557.240
1055.133;   21.950;  -14.020;  693.140
1055.680;   22.190;  -13.430;  646.620
1056.227;   21.441;  -14.570;  542.780
1056.774;   22.483;  -14.400;  794.980
1057.321;   19.816;  -14.230;  523.260
1057.868;   20.869;  -14.220;  651.320
1058.415;   20.447;  -14.060;  651.980
1058.961;   21.586;  -14.640;  678.940
1059.508;   20.598;  -13.970;  643.820
1060.055;   20.037;  -15.100;  581.780
1060.601;   20.069;  -12.180;  624.300
1061.148;   19.666;  -15.010;  616.820
1061.694;   19.234;  -14.750;  592.580
1062.241;   19.863;  -14.130;  596.320
1062.787;   20.149;  -14.770;  663.140
1063.334;   21.304;  -13.130;  808.560
1063.880;   20.310;  -14.420;  668.360
1064.426;   19.614;  -13.130;  706.820
1064.972;   18.907;  -13.960;  601.340
1065.518;   18.149;  -13.680;  566.640
1066.065;   18.727;  -15.720;  624.460
1066.611;   18.022;  -13.970;  598.800
1067.157;   18.405;  -13.920;  641.860
1067.703;   19.084;  -14.760;  668.480
1068.249;   18.225;  -14.490;  605.220
1068.794;   18.473;  -14.740;  626.880
1069.340;   16.974;  -13.220;  578.960
1069.886;   17.306;  -14.930;  590.700
1070.432;   17.076;  -14.700;  541.720
1070.977;   16.856;  -14.470;  601.080
1071.523;   16.719;  -14.330;  573.060
1072.068;   16.760;  -14.960;  582.000
1072.614;   17.099;  -16.220;  527.760
1073.160;   17.252;  -11.280;  687.040
1073.705;   16.127;  -15.990;  572.520
1074.250;   16.054;  -16.550;  559.900
1074.796;   17.243;  -14.600;  655.160
1075.341;   17.690;  -13.440;  664.100
1075.886;   16.705;  -14.450;  594.240
1076.431;   16.585;  -13.160;  649.880
1076.976;   15.357;  -14.710;  639.220
1077.521;   15.243;  -14.000;  583.080
1078.067;   14.855;  -14.470;  579.400
1078.612;   15.745;  -14.530;  661.620
1079.156;   15.234;  -15.660;  601.540
1079.701;   15.383;  -16.120;  693.260
1080.246;   15.567;  -12.960;  696.300
1080.791;   15.446;  -13.700;  625.020
1081.336;   15.366;  -15.540;  659.320
1081.880;   15.595;  -14.640;  649.680
1082.425;   14.553;  -14.220;  573.480
1082.970;   16.360;  -11.890;  717.040
1083.514;   14.429;  -13.820;  597.000
1084.059;   14.240;  -14.280;  586.720
1084.603;   13.489;  -12.890;  565.840
1085.147;   14.787;  -13.590;  645.220
1085.692;   15.049;  -14.050;  716.800
1086.236;   12.463;  -14.990;  503.140
1086.780;   15.173;  -12.640;  751.440
1087.325;   13.941;  -15.550;  654.620
1087.869;   13.541;  -14.980;  610.700
1088.413;   14.624;  -13.440;  705.040
1088.957;   11.889;  -12.170;  543.400
1089.501;   14.030;  -12.730;  766.640
1090.045;   14.540;  -14.650;  726.480
1090.589;   12.194;  -14.500;  569.920
1091.133;   12.431;  -12.320;  673.340
1091.676;   12.846;  -16.130;  591.940
1092.220;   12.302;  -13.930;  600.920
1092.764;   13.772;  -12.820;  706.960
1093.307;   12.865;  -11.700;  673.780
1093.851;   11.810;  -15.600;  556.540
1094.395;   12.957;  -13.920;  683.140
1094.938;   12.118;  -16.090;  632.520
1095.482;   11.204;  -13.820;  559.800
1096.025;   12.745;  -12.720;  710.880
1096.568;   13.745;  -12.100;  779.280
1097.112;   10.184;  -15.450;  508.180
1097.655;   11.565;  -14.310;  603.000
1098.198;    9.918;  -14.740;  600.180
1098.741;   10.536;  -15.550;  612.860
1099.285;   11.662;  -12.600;  657.300
1099.828;    9.496;  -15.050;  439.400
1100.371;   10.715;  -14.800;  608.160
1100.914;   11.018;  -16.480;  682.660
1101.457;   11.217;  -12.990;  679.900
1101.999;    9.848;  -14.110;  584.680
1102.542;   11.347;  -11.450;  641.440
1103.085;   10.057;  -13.350;  658.500
1103.628;   11.690;  -13.200;  762.060
1104.170;    9.530;  -12.310;  588.280
1104.713;   10.615;  -14.320;  646.700
1105.256;    9.211;  -16.110;  557.440
1105.798;    8.204;  -15.910;  499.980
1106.341;   10.823;  -12.200;  728.900
1106.883;    9.225;  -14.910;  521.340
1107.425;    9.998;  -14.960;  668.180
1107.968;    9.730;  -13.440;  612.380
1108.510;   10.009;  -14.010;  684.960
1109.052;    7.976;  -15.430;  612.620
1109.594;    8.522;  -15.290;  554.440
1110.136;    8.879;  -13.360;  643.220
1110.679;    8.392;  -13.820;  633.080
1111.221;    9.495;  -13.690;  604.460
1111.763;    7.574;  -14.890;  559.220
1112.304;    7.811;  -14.550;  547.140
1112.846;    8.350;  -12.760;  666.240
1113.388;   11.805;  -10.780;  942.180
1113.930;    8.143;  -12.690;  694.200
1114.472;    7.719;  -15.730;  606.540
1115.013;    6.418;  -14.620;  551.280
1115.555;    6.996;  -14.950;  587.100
1116.097;    6.859;  -16.460;  579.480
1116.638;    8.272;  -13.730;  684.600
1117.180;    8.303;  -13.810;  667.740
1117.721;    7.378;  -13.280;  568.580
1118.262;    8.256;  -15.080;  677.960
1118.804;    7.348;  -14.040;  637.340
1119.345;    6.640;  -15.430;  578.400
1119.886;    7.731;  -15.240;  704.040
1120.427;    7.100;  -15.820;  589.020
1120.969;    6.144;  -14.550;  597.920
1121.510;    5.690;  -14.030;  563.060
1122.051;    7.046;  -11.990;  723.580
1122.592;    6.282;  -16.490;  655.420
1123.133;    5.313;  -15.580;  547.940
1123.673;    7.001;  -12.850;  706.480
1124.214;    6.261;  -13.630;  612.460
1124.755;    7.195;  -14.830;  639.460
1125.296;    5.813;  -13.110;  627.320
1125.836;    7.138;  -11.320;  691.500
1126.377;    5.947;  -14.330;  599.660
1126.918;    6.915;  -12.800;  614.980
1127.458;    5.739;  -13.580;  622.220
1127.999;    6.126;  -10.330;  656.980
1128.539;    6.858;  -13.390;  694.240
1129.079;    5.377;  -16.420;  632.720
1129.620;    4.337;  -15.700;  558.100
1130.160;    4.016;  -14.790;  539.480
1130.700;    5.773;  -12.910;  640.840
1131.240;    5.322;  -15.610;  643.700
1131.781;    4.679;  -12.920;  619.680
1132.321;    4.270;  -15.300;  599.120
1132.861;    4.040;  -14.760;  564.200
1133.401;    4.309;  -15.470;  593.940
1133.941;    5.206;  -13.710;  626.280
1134.481;    4.002;  -11.820;  597.580
1135.020;    3.939;  -14.810;  609.160
1135.560;    4.775;  -13.660;  674.940
1136.100;    3.209;  -13.940;  501.160
1136.640;    2.872;  -15.410;  510.480
1137.179;    3.124;  -16.920;  537.960
1137.719;    3.789;  -16.430;  605.400
1138.258;    4.040;  -16.300;  587.360
1138.798;    3.954;  -13.710;  663.780
1139.337;    2.601;  -13.840;  482.840
1139.877;    4.177;  -16.140;  642.360
1140.416;    6.487;  -11.410;  878.060
1140.955;    2.800;  -12.820;  535.380
1141.494;    3.861;  -12.310;  669.280
1142.034;    2.842;  -16.280;  583.520
1142.573;    3.590;  -13.090;  646.280
1143.112;    2.267;  -13.770;  553.480
1143.651;    2.013;  -15.830;  536.480
1144.190;    4.033;  -15.010;  691.640
1144.729;    2.936;  -13.650;  607.420
1145.267;    2.526;  -13.670;  584.900
1145.806;    3.390;  -13.630;  637.040
1146.345;    2.634;  -14.160;  635.020
1146.884;    2.912;  -11.180;  622.500
1147.422;    1.633;  -15.890;  533.060
1147.961;    3.881;  -12.760;  708.460
1148.500;    3.951;  -15.220;  669.720
1149.038;    3.243;  -13.720;  632.500
1149.577;    2.740;  -13.250;  698.640
1150.115;    0.728;  -16.790;  452.280
1150.653;    2.150;  -15.810;  607.340
1151.192;    1.954;  -14.730;  552.920
1151.730;    1.381;  -13.660;  652.560
1152.268;    1.367;  -15.120;  589.520
1152.806;    2.377;  -15.580;  571.180
1153.344;    0.520;  -16.210;  577.640
1153.882;    2.601;  -12.810;  600.060
1154.421;    0.324;  -14.150;  470.620
1154.958;    1.062;  -15.360;  595.240
1155.496;    2.109;  -14.710;  645.280
1156.034;    1.967;  -13.640;  721.880
1156.572;    2.125;  -13.740;  667.060
1157.110;    0.607;  -16.960;  473.940
1157.647;    1.947;  -11.940;  676.960
1158.185;   -0.302;  -14.090;  564.320
1158.723;    0.048;  -13.610;  509.200
1159.260;    1.315;  -14.760;  701.700
1159.798;    1.589;  -13.700;  658.160
1160.335;    0.581;  -13.820;  631.820

