
Integration time [ms]:   3.276
Averaging Nr. [scans]: 1000
Smoothing Nr. [pixels]: 0
Data measured with spectrometer [name]: 7414430SP
Wave   ;Sample   ;Dark     ;Reference
[nm]   ;[counts] ;[counts] ;[counts] 

288.544;  152.996;    7.793;  793.890
289.143;  156.833;    7.462;  681.602
289.742;  156.333;    8.602;  828.814
290.341;  141.255;    1.321;  789.841
290.940;  130.661;   -0.709;  730.702
291.538;  131.241;    0.881;  881.108
292.137;  132.820;    0.122;  792.581
292.736;  136.890;   -1.929;  975.101
293.335;  132.985;   -8.229;  735.086
293.934;  133.325;   -5.279;  781.677
294.532;  132.371;   -1.369; 1031.958
295.131;  117.096;   -7.641;  834.394
295.730;  117.693;   -8.420;  809.588
296.328;  116.419;   -5.611;  783.442
296.927;  117.574;   -5.781;  779.652
297.525;  118.639;   -6.361;  781.236
298.124;  108.651;  -11.382;  654.009
298.722;  112.997;   -7.641;  761.933
299.321;  110.795;   -6.811;  708.597
299.919;  108.124;   -6.991;  751.918
300.518;  105.464;  -10.362;  689.338
301.116;  107.502;   -9.581;  691.381
301.715;  106.770;   -4.891;  730.222
302.313;  105.944;   -8.801;  704.943
302.911;  101.603;   -8.522;  733.830
303.509;  106.527;   -6.171;  925.627
304.108;  104.077;   -7.311;  760.383
304.706;  103.609;   -8.321;  801.664
305.304;   97.768;  -10.222;  796.707
305.902;  103.386;   -6.021;  784.484
306.500;   98.816;   -4.971;  728.200
307.098;   97.082;   -7.061;  746.560
307.696;   95.322;   -8.801;  780.432
308.294;   96.201;   -6.411;  731.359
308.892;   98.103;   -2.901;  759.769
309.490;   94.140;   -5.041;  712.161
310.088;   92.185;   -5.002;  788.444
310.686;   96.519;   -2.041;  821.749
311.284;   92.573;   -2.351;  766.040
311.882;   90.371;   -4.422;  731.225
312.480;   86.716;   -4.192;  697.167
313.078;   88.626;   -1.172;  808.331
313.675;   88.603;   -2.601;  691.600
314.273;   84.180;   -1.312;  797.837
314.871;   83.632;   -3.942;  589.829
315.468;   80.997;   -2.802;  652.090
316.066;   84.555;   -0.701;  694.427
316.664;   77.033;   -4.362;  656.351
317.261;   81.173;   -2.872;  910.128
317.859;   76.842;   -2.022;  768.735
318.456;   77.402;   -0.531;  830.096
319.054;   73.413;   -3.912;  787.828
319.651;   72.563;   -4.752;  759.928
320.249;   71.606;   -2.602;  810.188
320.846;   69.147;   -0.821;  714.286
321.443;   66.289;   -4.642;  832.135
322.041;   62.992;   -5.002;  812.315
322.638;   61.594;   -3.982;  701.456
323.235;   62.928;   -3.411;  665.683
323.833;   60.235;   -7.361;  740.354
324.430;   54.516;   -8.611;  615.900
325.027;   56.168;   -4.061;  876.855
325.624;   56.311;   -4.031;  644.532
326.221;   52.727;   -7.481;  689.717
326.818;   53.007;   -5.281;  818.332
327.415;   55.778;   -7.460;  748.828
328.012;   55.402;   -5.510;  690.585
328.609;   53.229;   -7.880;  731.389
329.206;   51.365;   -8.331;  778.621
329.803;   52.050;   -5.121;  737.841
330.400;   55.083;   -4.510;  704.260
330.997;   55.981;   -6.441;  817.147
331.594;   54.730;   -8.831;  788.185
332.191;   60.368;   -7.621;  728.722
332.787;   62.720;   -4.591;  844.463
333.384;   61.409;   -7.412;  763.093
333.981;   59.725;   -8.293;  815.687
334.578;   62.924;   -7.052;  708.378
335.174;   65.177;   -3.102;  731.469
335.771;   65.658;   -5.943;  836.456
336.367;   62.290;   -7.393;  710.631
336.964;   65.726;   -4.063;  793.266
337.561;   64.322;   -3.813;  731.112
338.157;   59.650;   -4.654;  911.916
338.754;   56.899;   -7.934;  796.589
339.350;   54.914;   -4.414;  722.493
339.946;   56.907;   -4.664;  773.135
340.543;   49.134;   -6.375;  846.136
341.139;   44.108;   -9.815;  720.836
341.735;   42.027;   -4.526;  772.593
342.332;   39.936;   -4.895;  691.472
342.928;   40.275;   -4.295;  795.394
343.524;   35.012;   -5.476;  761.684
344.120;   31.999;   -5.856;  738.562
344.716;   33.862;   -2.155;  723.717
345.313;   32.024;   -6.275;  795.342
345.909;   26.557;   -8.815;  627.336
346.505;   28.752;   -5.305;  740.247
347.101;   29.317;   -2.674;  827.864
347.697;   30.234;   -4.344;  785.398
348.293;   24.170;   -9.975;  627.244
348.889;   24.756;   -5.774;  745.914
349.485;   24.482;   -5.004;  688.205
350.081;   24.667;   -4.704;  772.592
350.676;   20.156;   -6.635;  691.606
351.272;   24.612;   -4.504;  809.530
351.868;   24.052;   -3.914;  780.497
352.464;   21.306;   -9.044;  723.932
353.059;   18.189;   -8.314;  646.017
353.655;   20.928;   -7.024;  777.063
354.251;   21.665;   -5.343;  759.845
354.846;   16.785;   -8.604;  740.646
355.442;   13.610;   -6.945;  753.071
356.038;   17.478;   -7.564;  751.708
356.633;   16.520;   -5.814;  728.594
357.229;   13.887;   -7.364;  724.757
357.824;   12.940;   -8.024;  703.600
358.420;   11.863;   -9.384;  679.726
359.015;   12.571;   -5.104;  695.357
359.610;   13.234;   -6.854;  763.920
360.206;    7.310;  -10.185;  603.240
360.801;    9.829;   -7.054;  646.503
361.396;   12.645;   -5.034;  725.975
361.992;    7.341;   -8.284;  668.220
362.587;    4.601;   -8.625;  670.160
363.182;    7.676;   -7.674;  689.631
363.777;    7.527;   -5.164;  738.242
364.372;    7.407;   -8.604;  737.314
364.967;    4.038;   -9.055;  680.744
365.563;    8.363;   -6.114;  815.567
366.158;    5.348;   -5.814;  685.161
366.753;    5.483;   -7.854;  649.263
367.348;    3.712;   -7.804;  746.056
367.942;    4.299;   -7.954;  697.298
368.537;    3.234;   -4.984;  754.245
369.132;    3.269;   -8.564;  703.428
369.727;   -0.326;   -8.855;  638.079
370.322;    0.916;   -6.245;  580.186
370.917;    0.257;   -6.425;  710.646
371.511;    2.899;   -6.294;  861.834
372.106;   -0.526;   -7.685;  776.964
372.701;   -3.433;   -7.335;  585.988
373.296;    1.928;   -4.564;  863.135
373.890;   -2.693;  -10.235;  647.840
374.485;   -5.185;   -7.885;  691.199
375.079;   -1.183;   -7.324;  738.685
375.674;    0.547;   -3.494;  812.970
376.268;   -3.581;   -8.525;  691.759
376.863;   -9.334;  -10.086;  580.327
377.457;   -3.985;   -7.025;  662.490
378.052;   -4.976;   -3.585;  764.884
378.646;   -5.932;   -7.595;  741.167
379.240;   -5.866;   -8.335;  721.176
379.835;   -5.204;   -5.785;  636.978
380.429;   -7.121;   -4.335;  562.557
381.023;   -7.579;   -6.805;  779.205
381.617;   -9.673;   -9.195;  680.106
382.212;   -6.159;   -6.905;  685.303
382.806;   -5.170;   -3.745;  760.690
383.400;  -10.053;   -7.745;  672.281
383.994;  -10.937;   -9.765;  664.870
384.588;   -6.995;   -6.564;  697.701
385.182;   -5.519;   -5.344;  726.624
385.776;   -7.130;   -8.514;  706.875
386.370;  -10.599;   -9.555;  681.968
386.964;   -8.937;   -8.715;  684.155
387.558;   -7.796;   -6.174;  598.360
388.152;  -11.205;   -8.725;  681.959
388.745;   -9.083;   -7.965;  814.707
389.339;   -7.878;   -5.924;  747.642
389.933;   -6.321;   -5.524;  695.370
390.527;   -7.617;   -7.114;  859.029
391.120;  -13.557;  -10.725;  595.318
391.714;  -10.494;   -8.035;  711.633
392.308;   -7.377;   -3.574;  780.253
392.901;  -10.956;   -7.245;  642.460
393.495;  -12.547;   -9.285;  595.414
394.089;   -9.941;   -5.895;  760.452
394.682;  -11.792;   -4.295;  697.188
395.275;  -12.193;   -9.875;  719.927
395.869;  -12.902;   -8.485;  667.314
396.462;  -11.239;   -7.455;  616.609
397.056;   -7.022;   -5.424;  776.621
397.649;  -12.578;   -6.605;  731.575
398.242;  -10.594;   -8.224;  712.645
398.836;   -8.911;   -7.474;  766.408
399.429;  -10.239;   -7.094;  631.041
400.022;  -13.811;   -9.475;  665.902
400.615;  -11.249;   -7.145;  805.609
401.208;   -8.767;   -7.174;  691.451
401.802;  -11.567;   -5.515;  699.329
402.395;  -12.066;   -9.875;  683.502
402.988;  -13.404;   -8.845;  696.627
403.581;   -9.884;   -8.874;  646.878
404.174;   -8.070;   -5.324;  686.568
404.767;  -10.882;   -9.575;  638.583
405.360;  -13.322;  -10.965;  621.445
405.953;   -7.412;   -8.764;  759.034
406.545;   -7.572;   -7.514;  725.342
407.138;  -11.575;  -10.025;  618.350
407.731;   -9.976;  -10.034;  613.303
408.324;   -6.142;   -9.374;  660.554
408.917;   -7.030;   -6.534;  681.864
409.509;   -9.313;   -8.004;  740.396
410.102;  -11.176;   -9.875;  643.948
410.695;   -4.923;   -8.604;  665.758
411.287;   -5.509;   -6.794;  599.821
411.880;   -6.759;   -9.334;  585.421
412.472;  -11.171;  -10.254;  613.092
413.065;   -6.732;   -6.714;  629.408
413.657;   -5.494;   -7.234;  576.678
414.250;   -4.750;  -10.544;  646.681
414.842;   -6.789;   -9.744;  676.353
415.434;   -4.101;   -6.994;  570.463
416.027;   -0.128;   -5.893;  652.196
416.619;   -2.638;   -7.264;  713.400
417.211;   -2.737;  -10.374;  599.352
417.804;    0.777;   -7.993;  628.499
418.396;   -2.832;   -7.234;  607.643
418.988;   -0.626;   -9.443;  659.238
419.580;   -4.815;  -10.724;  568.276
420.172;   -2.195;  -10.323;  536.196
420.764;    2.183;   -8.793;  672.482
421.356;    0.875;  -11.143;  636.898
421.948;   -0.161;   -8.293;  677.661
422.540;    5.193;   -7.893;  680.027
423.132;    3.910;   -7.082;  600.641
423.724;    1.125;   -8.653;  561.267
424.316;    2.736;  -10.213;  621.345
424.908;    6.515;   -9.762;  591.517
425.500;    7.912;   -5.572;  647.978
426.092;    7.333;   -8.422;  648.268
426.683;    6.173;   -9.283;  684.836
427.275;    9.815;   -7.852;  641.471
427.867;   11.732;   -5.272;  668.948
428.458;   11.607;   -7.682;  732.344
429.050;   10.106;  -10.612;  680.749
429.642;   12.607;   -9.882;  743.124
430.233;   13.353;   -6.962;  569.356
430.825;   14.196;   -6.842;  724.809
431.416;   11.242;   -9.672;  698.241
432.008;   15.249;   -6.552;  651.723
432.599;   15.984;   -6.891;  656.073
433.190;   12.333;  -10.912;  637.670
433.782;   12.595;  -11.172;  590.395
434.373;   19.751;   -6.061;  884.765
434.964;   18.363;   -8.251;  602.920
435.556;   15.771;   -9.722;  634.537
436.147;   18.860;   -9.082;  758.490
436.738;   18.721;   -8.041;  701.099
437.329;   24.510;   -7.341;  721.723
437.920;   17.309;   -8.162;  666.688
438.511;   17.548;  -11.802;  564.526
439.103;   23.974;  -10.191;  623.998
439.694;   26.058;   -7.601;  681.583
440.285;   26.516;   -8.541;  764.432
440.876;   24.525;   -9.751;  845.738
441.466;   23.985;   -9.401;  575.162
442.057;   29.709;   -7.760;  665.814
442.648;   28.351;   -9.971;  746.255
443.239;   26.445;  -11.001;  620.477
443.830;   32.220;   -7.990;  704.958
444.421;   33.524;   -7.910;  655.474
445.011;   30.148;   -8.131;  693.619
445.602;   30.302;   -7.111;  743.126
446.193;   32.321;  -10.920;  488.117
446.783;   36.293;   -6.500;  640.397
447.374;   31.342;   -8.671;  692.759
447.964;   32.721;  -10.781;  713.770
448.555;   41.642;   -9.650;  822.742
449.145;   37.684;   -8.660;  662.853
449.736;   38.174;   -8.990;  803.179
450.326;   38.789;   -9.500;  713.626
450.917;   42.477;   -8.680;  675.324
451.507;   42.082;   -7.520;  600.661
452.097;   43.374;   -8.590;  746.267
452.688;   43.975;  -11.340;  742.160
453.278;   43.702;  -10.100;  566.840
453.868;   48.569;   -6.019;  793.550
454.458;   46.015;   -9.440;  651.141
455.048;   46.987;  -10.560;  711.783
455.639;   48.292;  -11.799;  567.096
456.229;   51.721;   -6.899;  710.694
456.819;   53.467;   -7.389;  751.158
457.409;   53.540;  -11.119;  773.993
457.999;   57.470;   -9.289;  737.505
458.589;   57.086;   -6.139;  686.606
459.179;   56.162;   -8.729;  717.658
459.769;   54.829;   -9.789;  627.099
460.358;   59.805;  -10.259;  797.262
460.948;   59.457;   -7.299;  689.503
461.538;   61.486;  -10.289;  660.677
462.128;   59.290;  -11.269;  664.934
462.717;   65.972;   -9.368;  710.326
463.307;   68.700;   -7.908;  705.846
463.897;   65.272;   -9.599;  656.942
464.486;   64.570;   -9.769;  837.128
465.076;   69.654;   -8.048;  733.776
465.666;   73.105;   -9.358;  652.900
466.255;   70.099;   -7.919;  785.651
466.845;   70.362;  -11.689;  666.749
467.434;   73.144;   -7.818;  725.873
468.023;   73.919;   -7.678;  658.357
468.613;   71.275;  -10.939;  713.946
469.202;   75.217;  -10.118;  646.507
469.791;   79.815;   -9.108;  737.811
470.381;   81.706;   -6.058;  742.813
470.970;   80.663;  -10.428;  711.099
471.559;   81.384;  -10.268;  733.291
472.148;   85.332;   -8.448;  675.737
472.738;   87.275;   -6.917;  765.466
473.327;   86.609;  -11.978;  637.529
473.916;   86.471;  -11.888;  737.446
474.505;   91.406;   -9.437;  751.703
475.094;   94.415;   -6.747;  806.570
475.683;   93.123;   -9.367;  797.699
476.272;   94.917;  -12.637;  730.632
476.861;   97.673;  -10.027;  706.754
477.449;  103.641;   -8.716;  728.487
478.038;   98.591;   -9.577;  692.513
478.627;   99.842;   -9.718;  714.852
479.216;  107.060;   -8.947;  769.441
479.805;  109.325;   -6.256;  783.375
480.393;  109.633;   -7.937; 1008.945
480.982;  107.930;   -7.717;  874.501
481.571;  114.755;   -9.266;  858.333
482.159;  114.802;   -7.636;  705.386
482.748;  115.212;   -9.667;  821.385
483.336;  120.267;  -10.376;  858.209
483.925;  121.107;   -7.147;  774.373
484.513;  127.277;   -7.996;  758.962
485.102;  124.613;  -10.027;  810.965
485.690;  133.025;  -10.446; 1011.050
486.278;  135.195;   -8.446;  979.329
486.867;  136.405;   -6.356;  809.662
487.455;  138.202;   -9.136;  898.229
488.043;  139.388;  -10.646;  748.361
488.631;  149.376;   -7.456; 1005.079
489.220;  153.030;   -6.636;  908.626
489.808;  152.490;  -11.036;  741.415
490.396;  161.573;  -10.246;  914.645
490.984;  168.450;   -8.556;  830.161
491.572;  179.078;   -5.886;  940.315
492.160;  186.887;   -9.486;  919.081
492.748;  199.859;  -10.976;  884.341
493.336;  225.912;   -8.776; 1019.693
493.924;  254.438;   -5.465;  958.077
494.512;  285.700;   -9.986; 1066.638
495.100;  328.927;  -10.636; 1103.280
495.687;  385.803;  -10.885; 1206.373
496.275;  452.673;   -8.126; 1150.796
496.863;  525.391;  -10.586; 1281.171
497.451;  633.008;  -11.926; 1386.805
498.038;  780.513;  -10.885; 1556.729
498.626;  895.084;   -6.315; 1741.407
499.214; 1046.026;   -7.326; 2016.609
499.801; 1258.716;  -11.906; 2220.633
500.389; 1520.840;  -10.466; 2312.494
500.976; 1859.814;   -5.236; 2744.849
501.564; 2303.975;   -8.936; 3148.565
502.151; 2703.260;  -13.176; 3515.999
502.738; 3198.573;  -10.646; 3971.274
503.326; 3608.183;   -9.525; 4403.796
503.913; 4016.558;  -10.856; 5161.749
504.500; 4366.334;  -11.586; 5986.420
505.088; 4847.553;  -10.336; 6381.201
505.675; 5393.026;   -6.355; 6925.547
506.262; 6055.006;   -9.046; 7619.060
506.849; 6820.256;  -10.416; 8733.969
507.436; 7333.655;  -10.305; 9790.121
508.023; 7951.167;   -5.496; 9985.472
508.610; 8223.031;   -7.856;10434.618
509.197; 8872.450;  -10.097;11198.435
509.784;10299.993;  -10.886;12391.194
510.371;11359.738;   -9.315;13603.713
510.958;12177.244;   -9.936;14426.586
511.545;13014.552;   -9.326;15243.775
512.132;13950.263;  -10.075;15945.876
512.719;14583.491;   -7.796;16340.369
513.305;15540.503;  -10.606;18011.766
513.892;16484.043;  -11.486;19754.971
514.479;18005.109;   -9.126;20967.805
515.066;19485.486;   -6.026;22299.793
515.652;20661.451;   -8.466;22908.660
516.239;21909.367;  -10.886;23798.875
516.825;23020.676;  -11.496;25567.275
517.412;24288.707;   -5.796;28154.959
517.998;25259.193;  -10.506;28344.111
518.585;25170.371;  -10.076;27134.219
519.171;25397.658;   -8.315;27268.576
519.758;26881.389;   -8.596;28964.129
520.344;28900.504;   -8.466;30664.494
520.930;29121.811;  -11.006;32550.605
521.516;30844.141;  -10.495;35422.895
522.103;33568.430;   -5.526;38280.004
522.689;34499.238;   -8.746;37835.117
523.275;34079.504;  -11.376;37288.613
523.861;34754.332;  -11.156;37281.395
524.447;36000.379;   -8.135;37846.949
525.033;35467.945;   -7.896;38321.949
525.619;35815.191;  -12.476;38579.285
526.205;37554.164;   -9.516;40622.875
526.791;40577.102;   -6.926;42258.836
527.377;40403.363;   -8.346;42966.902
527.963;42293.430;   -8.717;42018.949
528.549;41115.098;  -11.016;42476.828
529.135;39565.457;   -8.536;41854.852
529.721;39034.430;   -9.666;41237.711
530.306;38539.285;  -10.066;41259.445
530.892;38560.129;  -11.356;41506.047
531.478;40069.063;   -6.596;43559.613
532.063;42683.707;   -8.836;47695.563
532.649;42814.770;  -10.047;50808.324
533.235;44118.852;   -9.746;51787.500
533.820;45839.910;   -6.566;52145.035
534.406;46835.102;  -10.817;51133.488
534.991;46196.188;   -9.416;49996.805
535.576;44727.652;   -9.036;48882.852
536.162;45199.512;   -6.156;46942.285
536.747;46612.652;  -11.607;45711.746
537.333;50353.910;  -11.787;48510.180
537.918;53614.547;  -12.437;50439.891
538.503;52167.137;   -7.196;50863.711
539.088;48941.875;  -10.556;50906.922
539.673;48937.969;   -8.767;52621.965
540.259;48595.496;  -10.026;52368.094
540.844;45834.500;   -7.416;50879.109
541.429;46643.898;   -9.467;52077.777
542.014;50322.172;   -9.527;52716.695
542.599;50258.563;   -9.946;52363.281
543.184;47094.813;   -7.927;53187.137
543.769;48197.234;   -9.297;54697.605
544.354;47813.172;  -10.127;53913.914
544.938;46790.426;   -9.267;49680.164
545.523;48823.191;   -6.506;47386.277
546.108;50948.516;   -9.787;49151.949
546.693;53306.840;  -11.587;51384.637
547.278;53351.797;  -10.986;51853.254
547.862;49999.629;   -8.206;51173.750
548.447;45161.527;  -10.067;51691.395
549.031;44550.383;   -9.637;52456.703
549.616;49499.488;   -9.926;52714.516
550.201;48477.805;   -6.347;52414.598
550.785;49273.887;   -7.917;52355.059
551.370;48809.438;  -10.867;54589.453
551.954;49004.270;   -9.047;58267.348
552.538;50327.188;   -7.827;59062.176
553.123;48579.805;  -10.287;58115.285
553.707;46247.508;  -12.178;56556.285
554.291;47007.887;   -8.717;56201.668
554.876;48819.488;   -7.457;55335.762
555.460;49507.977;  -10.387;54155.703
556.044;51321.836;   -9.618;53721.484
556.628;49327.301;  -11.567;53731.016
557.212;47620.078;   -8.097;54312.531
557.796;45530.816;  -11.077;53797.773
558.380;45762.098;  -11.108;56145.984
558.964;47084.488;   -9.057;57277.930
559.548;48072.746;   -6.977;56459.641
560.132;45780.160;  -11.457;54434.543
560.716;44567.926;  -11.378;54800.617
561.300;45416.016;   -9.577;57606.945
561.884;46569.711;   -7.127;58972.445
562.467;45390.664;   -7.118;57327.570
563.051;44534.723;  -13.358;54962.434
563.635;44950.117;  -10.178;52594.473
564.219;45700.770;   -7.837;50610.410
564.802;46689.219;  -11.398;49551.180
565.386;46787.551;  -12.788;48370.953
565.969;46364.348;   -9.077;48178.871
566.553;45426.438;   -6.207;49957.305
567.136;45464.398;   -8.568;50369.594
567.720;41488.730;  -11.868;49492.004
568.303;39862.559;   -8.268;50616.352
568.887;39881.738;   -8.698;50727.148
569.470;39982.969;   -6.808;51698.379
570.053;38965.570;  -13.188;52122.078
570.637;37299.254;  -12.037;52536.438
571.220;36593.996;   -8.577;51186.098
571.803;36529.465;   -8.498;51032.762
572.386;38645.953;  -10.498;49609.887
572.969;41588.152;   -9.388;48285.926
573.552;40317.406;   -8.338;47624.285
574.135;39154.316;   -8.518;45498.641
574.718;36425.625;  -13.628;41970.434
575.301;35093.453;  -10.893;41447.137
575.884;33761.277;   -8.158;40923.836
576.467;34999.875;  -10.328;45267.723
577.050;37505.586;  -13.058;48175.543
577.633;39247.344;   -9.458;47729.328
578.216;38048.531;   -8.928;47579.793
578.799;36834.543;   -9.358;47820.996
579.381;35261.277;  -11.388;48115.551
579.964;33616.871;  -11.718;47333.766
580.547;34969.402;   -8.588;46668.969
581.129;35994.086;   -8.859;44466.141
581.712;36702.742;  -10.729;44164.922
582.294;37484.680;  -11.118;46477.855
582.877;37609.988;   -5.218;48244.254
583.459;35531.473;   -8.679;47437.895
584.042;33616.375;  -10.709;46943.219
584.624;34070.871;  -11.669;46792.227
585.206;33725.652;   -8.218;46557.250
585.789;33916.121;  -10.569;45793.773
586.371;36704.797;  -11.859;43836.391
586.953;37439.074;  -10.719;42972.492
587.536;38434.551;   -7.198;42487.211
588.118;38372.445;   -8.720;42086.414
588.700;34623.414;  -10.439;43389.930
589.282;33639.617;   -9.198;43646.039
589.864;34533.777;   -9.199;43438.109
590.446;35812.668;  -11.319;43151.926
591.028;35483.422;  -11.159;42781.867
591.610;34455.191;  -11.779;42839.098
592.192;31643.764;   -7.668;42820.402
592.774;29993.070;  -11.949;40724.277
593.356;28917.928;  -12.129;39874.789
593.937;28583.146;  -10.669;39980.648
594.519;30805.516;   -6.509;42069.633
595.101;32948.207;  -10.849;42976.031
595.683;33078.809;  -11.679;44084.441
596.264;34175.426;   -9.049;43478.797
596.846;33052.035;   -8.849;43803.672
597.427;32330.604;   -9.570;42986.934
598.009;34063.551;  -12.620;42832.219
598.591;34344.484;  -10.039;42580.086
599.172;33428.137;  -10.369;43061.805
599.753;33411.688;   -9.140;41691.469
600.335;35282.145;  -11.430;40692.520
600.916;33938.484;   -9.939;39982.422
601.498;31456.057;   -8.479;40318.617
602.079;30101.861;  -10.920;40670.609
602.660;30104.119;  -11.480;41450.898
603.241;31216.697;  -11.699;41137.738
603.823;29986.449;   -9.579;38868.797
604.404;29925.564;  -10.620;38182.785
604.985;31382.479;  -10.450;38078.047
605.566;30616.469;   -9.129;38056.633
606.147;30528.875;   -7.510;37020.418
606.728;32704.256;  -10.660;37883.359
607.309;31608.648;  -11.740;38748.273
607.890;30782.045;   -9.759;38850.230
608.471;30537.572;   -8.250;37457.918
609.051;29876.512;   -9.240;36066.457
609.632;28887.451;  -12.120;35991.074
610.213;29679.266;   -9.110;37402.641
610.794;30235.346;   -8.030;38383.363
611.374;29662.543;   -8.110;40562.387
611.955;30218.223;  -13.560;38533.727
612.536;31799.031;  -11.400;36951.789
613.116;31430.846;   -8.070;37197.891
613.697;31557.188;  -10.830;38411.125
614.277;29985.736;  -11.641;38673.938
614.858;30983.658;  -13.310;37075.863
615.438;30402.348;   -7.460;35092.906
616.019;27359.723;   -7.601;33666.301
616.599;27896.627;  -12.020;34189.023
617.179;29950.646;  -11.780;36952.047
617.760;30604.873;   -8.570;39582.574
618.340;31653.920;  -11.471;38943.977
618.920;33242.094;  -11.170;37594.156
619.500;33201.348;  -11.071;37866.938
620.080;32421.842;   -7.750;37869.043
620.660;33343.473;  -12.711;36868.617
621.241;34384.020;  -10.211;36352.309
621.821;34501.535;  -10.961;35459.520
622.401;33971.902;   -7.720;35207.414
622.980;32863.047;   -8.981;35980.422
623.560;31291.908;   -9.331;37351.328
624.140;30607.963;   -9.850;34388.582
624.720;25730.254;   -7.451;32368.764
625.300;21961.820;   -9.070;32638.629
625.880;25245.004;  -12.601;34599.035
626.459;29178.457;  -11.751;36831.738
627.039;32365.945;   -9.281;38299.098
627.619;32330.648;   -8.801;38289.574
628.198;30391.973;  -12.071;37220.695
628.778;29390.094;   -9.461;37632.563
629.357;30203.881;   -8.491;38003.012
629.937;30307.785;   -9.721;38402.039
630.516;29787.635;   -9.951;37868.801
631.096;29564.400;  -11.731;35760.410
631.675;32697.564;   -8.572;35225.219
632.254;38055.328;  -11.282;35130.289
632.834;37274.004;  -13.322;35794.570
633.413;35192.215;  -10.301;35788.922
633.992;32134.506;   -8.582;34532.863
634.571;33376.324;   -8.352;33590.113
635.151;36040.477;  -11.912;34943.863
635.730;34359.980;  -10.511;35352.523
636.309;30978.145;   -7.731;35366.605
636.888;28472.971;   -9.952;36165.637
637.467;29206.125;  -11.672;37515.902
638.046;31240.434;   -8.901;39288.695
638.625;34511.527;   -7.912;38279.699
639.204;34187.691;  -10.022;37741.598
639.782;32237.963;  -12.252;38364.551
640.361;28444.307;  -10.041;36740.621
640.940;25620.361;  -11.161;34950.082
641.519;26005.189;   -9.701;34137.398
642.097;28470.553;  -11.271;35654.258
642.676;31391.215;   -8.651;35637.957
643.255;32538.357;   -8.711;36567.074
643.833;31815.584;   -9.581;37809.434
644.412;32244.162;  -13.711;37337.293
644.990;31470.980;  -11.811;37018.531
645.569;31357.322;   -9.411;36518.469
646.147;30363.801;  -10.291;36186.430
646.726;29479.633;  -12.401;36267.688
647.304;30530.201;  -10.411;36647.625
647.882;32649.355;   -9.651;39286.742
648.461;34329.598;   -9.631;39157.703
649.039;32565.355;  -11.881;35412.883
649.617;31729.697;   -9.661;34744.918
650.195;31583.607;   -9.301;35403.098
650.773;30521.305;  -10.511;35053.797
651.352;28114.949;  -11.521;33756.816
651.930;25864.996;  -12.211;31868.773
652.508;24113.893;   -9.171;33121.551
653.086;27987.293;   -9.371;33564.793
653.663;31035.658;  -13.161;34054.668
654.241;29859.092;  -13.031;35693.309
654.819;31402.684;   -9.371;36422.906
655.397;31221.883;  -10.511;38213.484
655.975;31082.537;  -10.371;39507.625
656.553;31162.568;  -10.051;39498.223
657.130;29438.424;  -10.061;40395.480
657.708;28851.959;   -9.561;39242.020
658.286;28883.756;  -11.511;38920.020
658.863;29922.551;  -10.261;40202.898
659.441;32672.656;   -7.531;39677.938
660.018;31898.461;   -9.501;40413.355
660.596;30672.568;  -13.301;39931.414
661.173;32618.625;  -11.211;39604.531
661.750;32968.281;   -9.951;39700.070
662.328;32343.830;   -9.390;39292.809
662.905;31544.881;  -11.330;38235.648
663.482;26775.387;   -9.050;36212.305
664.060;24711.484;   -8.240;35944.945
664.637;27529.883;  -10.050;35170.785
665.214;29525.021;  -11.760;34197.523
665.791;31323.404;  -10.530;34549.520
666.368;29788.727;   -9.690;35118.578
666.945;30435.977;   -9.320;36019.418
667.522;32091.707;  -11.860;36048.438
668.099;32272.980;  -10.770;36243.914
668.676;31490.762;   -6.260;35958.875
669.253;29694.729;   -7.000;37384.730
669.830;30041.904;  -10.190;36779.629
670.407;29840.119;   -9.550;35231.289
670.984;30228.309;   -9.260;35544.270
671.560;30476.928;   -9.280;35466.867
672.137;28974.219;  -11.810;34280.863
672.714;29670.496;  -11.490;34632.863
673.290;30016.965;   -7.740;35135.422
673.867;30270.250;  -10.660;36114.480
674.443;30619.559;  -12.230;36152.859
675.020;28918.371;  -10.450;35327.238
675.596;29982.414;   -9.260;35795.176
676.173;30468.748;  -10.780;35430.355
676.749;30132.408;  -13.690;33549.516
677.326;30371.924;  -11.980;32210.012
677.902;30652.895;   -8.630;32068.871
678.478;29827.719;  -10.730;32583.891
679.054;29474.695;  -10.520;32088.928
679.631;30279.467;  -11.920;30978.848
680.207;31133.961;   -7.490;33160.887
680.783;32252.750;   -9.860;35570.363
681.359;31361.168;  -13.380;36125.184
681.935;30565.158;  -12.480;35240.922
682.511;29651.537;   -7.900;34429.961
683.087;29695.936;   -7.710;34463.680
683.663;29606.932;  -11.480;34648.898
684.239;28723.238;  -14.090;34546.457
684.815;28234.023;   -7.560;35586.375
685.390;28654.563;   -9.910;35821.895
685.966;29120.623;  -11.159;35085.871
686.542;31791.781;  -11.169;34198.230
687.118;33870.633;   -5.959;32847.707
687.693;33937.785;  -10.329;32794.027
688.269;33119.305;  -12.059;33072.367
688.844;30881.523;  -10.909;33141.664
689.420;28770.643;   -8.019;33965.742
689.995;26563.816;   -8.399;34655.523
690.571;25387.264;  -10.949;33576.742
691.146;25904.098;   -9.619;32657.219
691.722;25261.156;   -8.999;32526.979
692.297;25290.225;  -11.589;33014.617
692.872;27359.066;  -11.739;34012.254
693.448;26886.416;  -11.059;34237.434
694.023;26127.447;  -10.139;34142.672
694.598;28361.422;   -9.029;34132.031
695.173;28532.129;  -13.319;34205.250
695.748;27925.791;  -10.169;32882.488
696.323;27574.160;   -8.339;32864.906
696.898;27513.477;   -8.169;33170.004
697.473;27430.393;  -12.309;32432.984
698.048;27151.574;  -10.989;31649.303
698.623;27488.998;   -9.329;30778.141
699.198;29442.420;   -9.849;31140.119
699.773;30243.826;  -12.329;31764.299
700.348;28759.391;  -10.389;31780.816
700.922;28866.859;   -9.269;32046.375
701.497;29304.740;   -9.329;32603.574
702.072;29305.008;  -10.789;34799.871
702.646;28395.666;  -10.839;35793.172
703.221;26428.400;   -9.099;35201.590
703.795;28376.689;  -10.939;34764.527
704.370;28769.990;  -12.859;34307.367
704.944;29170.441;  -11.559;33509.887
705.519;30400.617;   -7.939;31388.584
706.093;31550.939;  -10.499;31340.104
706.668;31568.932;  -11.289;32630.281
707.242;30157.494;  -11.509;32728.779
707.816;28628.430;   -9.639;32947.238
708.390;27290.525;  -11.429;33277.855
708.965;28442.883;  -11.869;33834.336
709.539;29210.021;  -11.689;33709.273
710.113;29540.666;  -10.478;33044.313
710.687;28664.184;  -10.228;31953.992
711.261;26386.588;  -13.698;30505.949
711.835;26070.271;  -13.378;30262.369
712.409;27060.498;   -9.698;31254.447
712.983;28717.486;  -11.898;32754.986
713.557;29528.506;  -15.138;34018.824
714.131;29319.359;  -14.098;34579.625
714.704;28659.086;   -9.958;33890.262
715.278;26337.428;  -10.028;33531.102
715.852;25679.967;  -11.148;33601.660
716.425;26469.266;   -9.068;33515.117
716.999;27049.393;  -10.038;33185.555
717.573;28224.787;   -9.798;33905.996
718.146;29493.369;  -12.378;35199.293
718.720;28986.354;  -11.918;35060.551
719.293;28281.146;   -8.088;34973.230
719.867;31090.291;  -10.888;36394.449
720.440;30862.268;  -11.938;36663.008
721.013;29237.461;  -12.818;35102.426
721.587;28036.902;  -10.298;33985.266
722.160;26569.189;  -10.048;33524.965
722.733;25610.842;  -12.108;32987.043
723.306;26430.049;  -10.818;33066.301
723.880;28434.111;   -8.908;33399.500
724.453;29897.742;   -9.878;33468.297
725.026;28775.158;  -11.188;33816.637
725.599;26314.000;  -11.678;32797.996
726.172;26868.012;   -9.618;33187.434
726.745;28316.680;   -8.258;35136.613
727.318;29987.793;  -12.978;35751.730
727.891;30459.787;  -12.148;35890.430
728.463;30181.100;   -8.968;34822.090
729.036;29177.574;  -10.188;32895.086
729.609;29448.521;  -11.788;31823.225
730.182;26137.656;  -11.788;31445.283
730.754;23679.117;  -10.268;32373.223
731.327;23779.098;   -9.998;33676.820
731.900;23929.434;  -12.228;33417.000
732.472;25275.369;  -13.848;31978.498
733.045;27307.426;   -8.698;30368.777
733.617;27194.764;  -10.607;30574.215
734.190;26613.383;  -11.507;31280.975
734.762;23598.939;  -13.647;31674.412
735.334;22084.938;   -9.767;31247.291
735.907;22739.863;   -9.897;29876.211
736.479;22500.162;  -11.637;29808.488
737.051;22113.189;   -9.567;30233.547
737.623;23515.465;   -8.187;31469.086
738.195;24715.826;  -11.187;31784.225
738.768;26512.904;  -12.337;32120.523
739.340;26204.250;  -12.227;32094.342
739.912;24868.838;  -11.057;31312.680
740.484;23846.178;  -10.207;31946.238
741.056;22850.221;  -10.047;32984.059
741.628;24515.467;  -13.627;33897.715
742.199;26912.443;   -7.177;33213.016
742.771;25335.348;  -10.797;31369.113
743.343;22908.469;  -11.997;31865.473
743.915;21736.430;  -12.867;32388.631
744.487;21847.189;   -7.617;31079.568
745.058;21983.799;   -9.557;30570.107
745.630;22654.086;   -9.877;29970.127
746.201;23521.332;  -14.177;29186.766
746.773;23704.023;   -9.237;28805.723
747.344;23662.887;   -9.847;29591.223
747.916;22402.100;  -11.657;31412.201
748.487;22378.734;  -10.587;32194.898
749.059;23618.473;   -8.707;32533.719
749.630;24702.666;  -10.537;32158.518
750.201;23860.256;  -11.687;30855.395
750.773;22143.863;  -11.647;28622.555
751.344;22125.906;   -7.147;28405.732
751.915;22986.250;   -9.757;28461.551
752.486;22148.930;  -12.427;27842.850
753.057;19998.531;  -12.227;27845.008
753.628;19010.775;  -10.417;27728.107
754.199;20236.395;  -11.767;27381.086
754.770;21340.943;  -11.187;25882.203
755.341;21284.951;  -10.507;25886.184
755.912;21401.016;   -9.387;26050.861
756.483;20721.729;  -10.647;26798.779
757.054;18790.621;  -11.837;27048.238
757.625;17534.252;  -12.716;26294.838
758.195;17444.264;   -9.666;26142.076
758.766;17211.463;   -8.656;26392.234
759.337;18074.801;  -12.856;26334.594
759.907;19916.084;  -13.366;27579.652
760.478;20690.900;   -8.576;28352.770
761.048;19958.713;  -10.526;27325.088
761.619;19141.064;  -11.116;26460.428
762.189;19146.969;  -12.136;26029.826
762.760;20312.814;   -9.456;26430.145
763.330;21444.338;   -7.136;26670.902
763.900;20771.965;  -11.786;26603.021
764.471;17967.982;  -11.546;25542.740
765.041;16617.613;   -8.096;24358.459
765.611;16835.646;   -8.876;23991.297
766.181;17383.887;  -12.196;24470.236
766.751;18195.779;  -11.636;24845.975
767.321;18035.049;  -10.156;24533.633
767.891;16060.195;  -11.766;24916.492
768.461;15450.046;  -14.936;24776.771
769.031;15908.124;  -12.356;24757.988
769.601;17522.994;   -7.526;24181.088
770.171;17538.738;  -10.766;23670.387
770.741;16741.516;  -13.176;22960.045
771.311;17001.516;  -10.616;22917.523
771.880;17336.143;   -9.576;23562.941
772.450;16797.396;  -10.336;24216.500
773.020;16717.605;  -13.516;24140.398
773.589;16331.176;  -13.466;24414.857
774.159;15894.174;   -8.686;23858.717
774.729;15525.804;   -9.476;22942.135
775.298;15051.849;  -13.666;22324.033
775.867;14629.901;  -11.716;21140.313
776.437;14599.981;   -9.906;20838.092
777.006;14253.558;  -12.166;20599.510
777.576;14204.951;  -12.356;20508.809
778.145;14483.937;  -11.646;20732.947
778.714;14398.610;   -8.226;21062.465
779.283;13575.093;   -9.556;20949.664
779.853;13151.020;  -14.116;20508.623
780.422;13570.804;  -11.506;20649.082
780.991;13144.543;   -9.556;21527.520
781.560;12156.080;   -9.095;22632.658
782.129;11969.973;  -12.135;23048.277
782.698;11954.498;  -10.865;23438.555
783.267;11600.195;   -9.335;23267.734
783.836;11571.686;  -11.045;22415.133
784.404;12524.863;  -13.865;20443.152
784.973;12886.186;  -13.095;19699.150
785.542;12744.573;  -11.575;19763.828
786.111;12685.951;   -9.705;20341.408
786.679;12315.151;  -12.105;20207.967
787.248;12071.603;  -12.455;19516.465
787.817;11815.761;  -11.535;18900.363
788.385;11343.882;   -9.765;17879.121
788.954;10750.328;  -14.005;17658.301
789.522;10337.817;  -11.955;17788.879
790.090;10921.651;  -10.135;18118.277
790.659;11310.422;  -10.975;18338.736
791.227;10676.266;  -13.375;18508.615
791.795;11113.762;  -12.375;17898.254
792.364;11475.068;  -10.725;17295.133
792.932;11722.380;   -9.715;16822.051
793.500;11964.022;  -12.675;17040.148
794.068;12277.618;  -13.495;17179.787
794.636;12391.827;  -10.885;16664.246
795.204;11884.627;  -11.045;16524.545
795.772;11899.375;  -13.175;17274.564
796.340;11378.247;  -12.445;17891.002
796.908;11190.105;   -9.735;17648.561
797.476;11203.397;   -9.815;17064.080
798.044;10810.287;  -13.985;16672.777
798.612; 9988.171;  -13.115;17023.996
799.180; 9627.451;  -10.185;16561.615
799.747; 9527.226;   -9.055;15962.773
800.315; 9228.791;  -12.385;15296.992
800.883; 8863.828;  -15.035;14801.771
801.450; 8814.286;  -10.365;14534.430
802.018; 8849.188;   -9.855;14173.248
802.585; 8893.597;  -11.905;14029.547
803.153; 8986.378;  -11.585;13836.846
803.720; 8982.021;   -9.095;13567.324
804.287; 8667.026;   -9.135;13360.622
804.855; 8214.263;  -11.604;13681.981
805.422; 8065.788;  -11.794;13536.560
805.989; 8011.882;  -10.734;13355.958
806.556; 8175.392;  -10.444;13747.896
807.124; 8521.137;  -12.764;13987.376
807.691; 8487.970;  -12.964;14038.674
808.258; 8248.629;  -11.134;14120.152
808.825; 7866.091;   -9.854;13860.111
809.392; 7919.084;  -10.504;13268.790
809.959; 7497.886;  -13.054;12680.389
810.526; 7123.765;   -8.294;12427.308
811.093; 7203.081;   -8.394;12030.105
811.659; 7776.826;  -12.304;11653.664
812.226; 8175.750;  -13.944;11637.183
812.793; 7805.631;  -10.484;11611.521
813.360; 7145.587;  -10.144;11885.181
813.926; 6756.870;  -11.684;12770.539
814.493; 6501.933;  -13.644;12677.638
815.060; 6151.240;   -9.724;11974.336
815.626; 6222.916;   -9.854;11594.715
816.193; 6645.265;  -13.254;11579.474
816.759; 6700.855;  -13.204;11666.972
817.325; 6853.116;   -9.434;11325.530
817.892; 7220.429;  -10.134;11105.369
818.458; 7605.670;  -13.474;10843.928
819.024; 7244.672;  -11.854;10714.406
819.591; 6909.791;  -10.244;10469.165
820.157; 6657.386;  -10.704;10235.523
820.723; 6145.611;  -12.324;10847.563
821.289; 5874.338;   -9.444;11040.980
821.855; 5793.701;   -8.374;10357.100
822.421; 5776.879;  -10.234; 9978.918
822.987; 5720.337;  -13.294; 9754.177
823.553; 5417.173;  -10.884;10065.755
824.119; 5260.174;   -8.884;10036.294
824.685; 5350.387;   -6.784;10029.192
825.251; 5425.533;  -12.004;10199.230
825.816; 5377.695;  -11.474; 9820.189
826.382; 5177.938;   -9.174; 9297.248
826.948; 5408.449;   -9.214; 9381.347
827.513; 5808.606;  -10.774; 9450.726
828.079; 5616.631;  -11.924; 9472.444
828.645; 5061.065;  -10.543; 9292.643
829.210; 4969.625;  -10.533; 9065.341
829.776; 4927.899;  -10.753; 9132.620
830.341; 4779.674;  -10.173; 9092.878
830.906; 4944.508;  -10.743; 9078.557
831.472; 5305.026;  -11.113; 8534.535
832.037; 5076.912;  -10.603; 8677.874
832.602; 4511.561;  -13.323; 8628.692
833.167; 4184.961;  -10.823; 8879.031
833.733; 4121.610;  -10.113; 9189.790
834.298; 4225.928;  -13.583; 9052.608
834.863; 4241.386;  -12.703; 8895.087
835.428; 4222.370;  -10.523; 8824.266
835.993; 4162.021;   -6.963; 8845.385
836.558; 4055.840;  -10.763; 8888.563
837.123; 4173.621;   -9.903; 8966.582
837.688; 4360.943;   -9.913; 8617.860
838.253; 4535.153;  -10.283; 8590.699
838.817; 4730.821;  -12.963; 8443.797
839.382; 4674.965;  -14.243; 8799.356
839.947; 4380.517;  -10.733; 8810.595
840.511; 4071.245;   -9.383; 8796.394
841.076; 3723.597;  -12.563; 8347.231
841.641; 3776.597;  -12.953; 8224.330
842.205; 3856.002;   -7.043; 8223.349
842.770; 3957.340;   -8.163; 8622.107
843.334; 4190.421;  -12.503; 8410.386
843.898; 4198.431;  -11.693; 8337.465
844.463; 4227.109;  -10.203; 8506.283
845.027; 3990.892;   -9.533; 8280.962
845.591; 3781.279;  -13.443; 8231.141
846.156; 3779.859;  -13.143; 7969.179
846.720; 3657.464;   -9.433; 7768.278
847.284; 3524.838;  -11.033; 7630.957
847.848; 3359.275;  -10.403; 7472.395
848.412; 3262.002;  -11.553; 7437.394
848.976; 3297.321;   -8.393; 7674.592
849.540; 3254.925;   -8.713; 7836.011
850.104; 3339.082;  -12.463; 7913.669
850.668; 3661.616;  -12.973; 7694.508
851.232; 3769.342;  -10.793; 7756.887
851.796; 3601.481;  -10.662; 7926.545
852.359; 3301.215;  -13.082; 7827.844
852.923; 3162.188;  -12.192; 7641.163
853.487; 3011.149;  -11.912; 7342.501
854.050; 2937.793;  -10.892; 7042.820
854.614; 3045.879;  -13.992; 7151.338
855.177; 3139.571;  -11.732; 7105.077
855.741; 3182.153;   -8.962; 6989.675
856.304; 3093.025;   -9.442; 6596.634
856.868; 3031.144;  -14.192; 6356.272
857.431; 3143.826;  -12.702; 6468.571
857.995; 3251.896;   -9.942; 6373.210
858.558; 3265.131;   -9.112; 6324.448
859.121; 3026.823;  -12.932; 6408.327
859.684; 2921.618;  -13.442; 6347.886
860.247; 3031.156;  -10.632; 6321.264
860.810; 3006.332;  -11.272; 6301.903
861.374; 2774.158;   -9.832; 6607.881
861.937; 2529.672;  -11.762; 6408.200
862.500; 2509.754;   -9.722; 6572.639
863.062; 2658.168;  -10.512; 6387.297
863.625; 2829.508;  -11.232; 6190.836
864.188; 2992.587;  -14.112; 5807.254
864.751; 3040.100;  -11.302; 5682.413
865.314; 2926.060;  -10.112; 5547.492
865.876; 2755.280;  -12.182; 5500.150
866.439; 2766.509;  -10.722; 5415.909
867.002; 2728.101;   -9.252; 5501.567
867.564; 2516.766;   -9.572; 5413.946
868.127; 2303.457;  -13.142; 5160.325
868.689; 2214.668;  -12.902; 5133.183
869.252; 2142.113;   -9.732; 5252.382
869.814; 2058.182;   -9.432; 5297.141
870.377; 2079.585;  -11.552; 5390.919
870.939; 2158.899;   -9.052; 5599.898
871.501; 2210.865;  -10.982; 5248.336
872.063; 2211.584;  -12.292; 4854.235
872.626; 2172.215;  -14.912; 4817.074
873.188; 2178.289;  -13.112; 4987.732
873.750; 2143.553;  -13.442; 4868.651
874.312; 2057.710;   -9.402; 4779.330
874.874; 1968.516;  -11.062; 4866.348
875.436; 1888.839;  -13.931; 4718.887
875.998; 1884.523;   -9.561; 4660.005
876.560; 1899.327;  -11.321; 4462.964
877.122; 1847.827;  -12.221; 4145.042
877.683; 1756.019;  -12.191; 4056.481
878.245; 1678.579;  -12.101; 3950.740
878.807; 1708.148;   -8.971; 4058.958
879.369; 1728.268;  -12.071; 3954.677
879.930; 1648.470;  -14.621; 3941.495
880.492; 1595.125;  -10.311; 4067.014
881.053; 1559.109;  -10.901; 3859.633
881.615; 1436.231;  -14.411; 3776.071
882.176; 1350.093;  -13.761; 3734.750
882.738; 1322.501;   -9.181; 3678.489
883.299; 1298.726;  -11.791; 3405.407
883.860; 1303.315;  -13.121; 3351.106
884.422; 1314.262;  -11.211; 3394.044
884.983; 1268.771;  -10.091; 3166.443
885.544; 1175.928;   -8.461; 3189.802
886.105; 1097.172;  -12.361; 3160.360
886.666; 1033.457;  -14.141; 3093.059
887.227;  975.689;  -11.361; 2941.957
887.788;  914.063;  -11.401; 2974.836
888.349;  852.813;  -13.791; 2721.214
888.910;  854.795;  -13.191; 2696.493
889.471;  861.995;   -9.881; 2560.172
890.032;  846.379;   -9.881; 2558.190
890.593;  821.310;  -10.371; 2567.669
891.153;  795.690;  -13.301; 2460.307
891.714;  747.392;  -11.431; 2372.046
892.275;  709.097;  -11.291; 2309.505
892.835;  669.179;  -11.471; 2382.543
893.396;  611.274;  -11.541; 2295.502
893.956;  554.451;  -11.181; 2162.420
894.517;  519.430;  -11.741; 2125.439
895.077;  514.609;  -11.671; 2086.978
895.638;  516.403;  -11.311; 2126.316
896.198;  487.836;   -9.831; 1838.275
896.758;  445.722;   -8.421; 1892.813
897.319;  414.228;  -12.351; 1792.232
897.879;  396.307;  -13.511; 1762.751
898.439;  371.253;  -12.001; 1661.149
898.999;  344.941;  -10.180; 1781.468
899.559;  336.201;  -12.030; 1703.347
900.119;  331.486;  -15.710; 1537.525
900.679;  329.013;   -8.900; 1638.384
901.239;  315.820;   -8.340; 1527.902
901.799;  305.593;  -13.910; 1456.441
902.359;  300.199;  -13.460; 1357.140
902.919;  291.647;  -11.490; 1331.118
903.479;  279.725;  -12.110; 1317.257
904.038;  256.898;  -11.720; 1262.595
904.598;  241.989;  -13.610; 1152.034
905.158;  237.887;  -11.040; 1240.893
905.717;  230.449;  -10.900; 1233.691
906.277;  219.674;  -15.080; 1217.330
906.836;  210.619;  -13.380; 1222.408
907.396;  203.272;  -10.780; 1193.047
907.955;  196.762;   -8.500; 1182.526
908.515;  189.818;  -12.760; 1099.364
909.074;  184.628;  -11.900; 1092.863
909.633;  179.545;   -8.950; 1069.121
910.192;  174.217;   -8.770; 1196.460
910.752;  168.622;  -12.390; 1029.960
911.311;  165.100;  -13.680; 1009.780
911.870;  163.389;  -12.370;  971.460
912.429;  164.009;  -10.900; 1094.080
912.988;  162.424;  -11.690; 1081.060
913.547;  158.130;  -13.240;  940.380
914.106;  152.768;  -11.990;  999.420
914.665;  149.373;   -9.990;  984.020
915.224;  148.391;  -12.880; 1035.760
915.782;  149.190;  -12.350;  922.560
916.341;  148.476;   -9.110; 1049.840
916.900;  144.241;   -9.270;  925.260
917.458;  142.401;  -13.240;  884.220
918.017;  142.529;  -13.550;  942.600
918.576;  142.372;  -12.320;  904.440
919.134;  138.759;  -11.490;  837.980
919.693;  137.322;  -13.670;  893.060
920.251;  136.364;  -15.470;  876.500
920.809;  134.563;  -11.290;  839.580
921.368;  134.299;  -10.210;  885.360
921.926;  132.736;  -12.140;  842.940
922.484;  132.656;  -13.080;  903.360
923.042;  131.342;  -11.720;  880.340
923.601;  134.101;   -7.480;  998.680
924.159;  132.348;  -11.570;  935.560
924.717;  129.867;  -13.840;  841.080
925.275;  130.248;  -10.640;  903.240
925.833;  129.127;  -11.540;  779.320
926.391;  129.361;  -12.960;  938.380
926.949;  128.657;  -14.130;  857.680
927.506;  129.203;  -11.750;  903.500
928.064;  128.850;  -10.250;  877.580
928.622;  127.561;  -13.030;  880.100
929.180;  127.674;  -13.400;  814.180
929.737;  129.199;  -10.700;  808.540
930.295;  131.965;  -10.070;  928.480
930.853;  133.625;  -11.960;  849.100
931.410;  135.226;  -13.120;  821.120
931.968;  134.283;  -10.770;  940.660
932.525;  132.746;  -10.680;  909.380
933.082;  133.914;  -13.130;  811.440
933.640;  135.323;  -13.210;  925.900
934.197;  133.092;  -11.060;  886.360
934.754;  133.719;   -9.580;  897.780
935.312;  136.745;  -14.000;  863.340
935.869;  141.237;  -10.710; 1012.980
936.426;  140.930;   -9.860;  872.800
936.983;  141.001;   -9.710;  889.020
937.540;  141.417;  -13.990;  838.280
938.097;  140.575;  -14.040;  940.120
938.654;  139.988;  -10.310;  898.860
939.211;  143.031;  -10.560;  952.480
939.768;  146.458;  -13.900;  915.420
940.324;  149.421;  -14.760;  904.200
940.881;  150.242;  -10.370;  878.500
941.438;  151.427;   -8.260; 1021.200
941.995;  146.649;  -12.540;  992.560
942.551;  144.356;  -14.670;  875.620
943.108;  145.065;  -10.450;  937.920
943.664;  146.811;  -10.750;  869.340
944.221;  150.430;  -11.550; 1088.140
944.777;  148.895;  -14.770;  869.680
945.334;  150.216;  -12.820;  884.840
945.890;  151.876;  -10.130;  946.480
946.446;  152.066;  -13.470;  947.020
947.003;  153.283;  -12.120;  964.940
947.559;  155.004;   -9.980; 1063.040
948.115;  154.389;   -9.080; 1026.540
948.671;  153.007;  -10.830;  967.300
949.227;  150.450;  -12.440;  859.560
949.783;  148.306;  -12.910;  858.900
950.339;  148.153;  -10.270;  991.000
950.895;  148.203;  -13.630; 1023.840
951.451;  148.400;  -15.100;  925.280
952.007;  149.939;  -11.330;  998.540
952.563;  150.425;  -10.580;  937.780
953.118;  149.669;  -13.440;  904.940
953.674;  149.463;  -12.710;  935.780
954.230;  148.724;  -10.350;  949.640
954.785;  146.064;   -9.190;  936.640
955.341;  144.094;  -11.200;  998.160
955.897;  142.032;  -16.560;  834.660
956.452;  143.896;  -12.570;  953.840
957.008;  142.814;   -7.970; 1083.640
957.563;  139.683;  -11.940; 1009.540
958.118;  135.518;  -13.450;  877.700
958.674;  135.827;  -12.030;  946.780
959.229;  137.803;   -9.410; 1013.980
959.784;  136.236;  -12.000;  832.400
960.339;  134.423;  -14.780; 1001.280
960.894;  129.862;   -9.860;  963.760
961.449;  126.392;   -9.970;  859.960
962.004;  126.963;  -10.900; 1212.840
962.559;  122.084;  -13.150;  860.140
963.114;  120.133;  -13.740;  742.480
963.669;  119.426;   -9.820;  915.500
964.224;  117.772;  -13.890;  874.340
964.779;  118.062;  -12.600;  828.420
965.334;  118.897;  -10.950; 1017.860
965.888;  117.758;  -11.170;  875.360
966.443;  120.025;  -12.540;  972.380
966.998;  119.727;  -15.780;  819.460
967.552;  118.131;   -9.760;  908.380
968.107;  114.788;   -9.060;  868.300
968.661;  115.308;  -11.950;  922.440
969.216;  116.536;  -12.800;  856.280
969.770;  116.943;  -11.210;  917.200
970.324;  116.192;  -11.610;  923.140
970.879;  112.311;  -11.370;  947.180
971.433;  109.430;  -12.540;  952.720
971.987;  104.704;  -11.320;  895.340
972.541;  101.150;  -10.720;  917.100
973.095;  100.665;   -9.680; 1009.460
973.649;  100.192;  -11.440;  809.480
974.203;   99.462;  -11.210;  829.040
974.757;   98.480;  -10.240;  855.220
975.311;  100.229;  -13.720;  872.600
975.865;   98.939;  -13.770;  881.820
976.419;   97.228;  -11.690;  857.400
976.973;   96.937;   -9.510;  849.620
977.526;   98.717;  -12.620;  949.920
978.080;   98.500;  -12.010;  796.780
978.634;   99.873;  -10.170;  921.320
979.187;   96.868;   -9.020;  905.400
979.741;   94.321;   -9.820; 1018.380
980.294;   89.007;  -14.870;  789.160
980.848;   87.643;  -12.380;  717.220
981.401;   89.031;  -10.350;  816.540
981.955;   91.541;  -13.720;  844.300
982.508;   90.624;  -11.490;  746.340
983.061;   91.105;  -10.000;  915.260
983.615;   87.439;  -11.480;  798.800
984.168;   84.334;  -13.220;  770.080
984.721;   83.997;  -13.960;  880.760
985.274;   83.241;  -10.870;  867.500
985.827;   81.892;   -9.790;  834.220
986.380;   79.042;  -13.120;  721.340
986.933;   78.741;  -12.450;  864.800
987.486;   76.557;  -10.210;  861.920
988.039;   75.185;   -8.430;  863.100
988.591;   73.726;  -10.520;  893.260
989.144;   71.202;  -14.860;  737.260
989.697;   71.300;  -13.080;  758.740
990.250;   71.202;  -10.150;  858.100
990.802;   70.492;  -13.430;  755.860
991.355;   71.527;  -12.750;  974.880
991.907;   69.174;  -12.040;  864.320
992.460;   66.820;  -11.330;  753.760
993.012;   65.617;  -13.610;  749.540
993.565;   64.868;  -13.460;  711.360
994.117;   66.108;   -9.360;  950.780
994.669;   62.933;  -11.300;  701.320
995.221;   61.168;  -13.540;  791.920
995.774;   60.128;  -13.430;  787.580
996.326;   58.420;  -12.520;  740.220
996.878;   57.114;  -10.950;  838.420
997.430;   55.182;  -14.300;  699.860
997.982;   55.016;  -13.760;  750.140
998.534;   53.871;  -11.530;  739.060
999.086;   52.540;  -10.310;  738.220
999.638;   51.517;  -12.530;  661.380
1000.190;   51.205;  -11.840;  699.320
1000.741;   50.851;  -10.260;  742.700
1001.293;   50.347;   -8.860;  686.020
1001.845;   48.439;  -13.700;  676.640
1002.396;   49.738;  -12.100;  743.400
1002.948;   48.868;  -12.760;  737.400
1003.500;   47.227;  -10.380;  723.780
1004.051;   46.747;  -11.900;  907.580
1004.603;   46.848;  -12.250;  791.820
1005.154;   42.572;  -13.210;  608.980
1005.705;   41.983;  -10.950;  723.960
1006.257;   41.164;  -13.880;  707.220
1006.808;   40.854;  -12.840;  685.460
1007.359;   40.120;  -10.570;  763.240
1007.910;   37.616;   -9.620;  646.640
1008.461;   38.607;  -13.630;  732.940
1009.013;   37.808;  -17.200;  588.340
1009.564;   39.130;  -10.200;  793.520
1010.115;   36.716;  -12.570;  597.040
1010.665;   36.233;  -15.150;  602.160
1011.216;   36.320;  -14.480;  667.920
1011.767;   36.045;  -11.340;  697.920
1012.318;   36.028;   -9.780;  736.980
1012.869;   35.071;  -12.380;  679.000
1013.419;   34.686;  -15.560;  603.120
1013.970;   34.422;  -11.010;  666.640
1014.521;   33.789;  -11.610;  620.620
1015.071;   34.587;  -13.450;  670.380
1015.622;   34.360;  -13.870;  635.460
1016.172;   33.419;  -11.610;  596.820
1016.723;   32.488;  -12.120;  614.380
1017.273;   32.731;  -13.620;  604.160
1017.823;   32.908;  -14.140;  650.340
1018.374;   32.528;  -12.800;  611.760
1018.924;   32.130;  -12.340;  716.880
1019.474;   32.889;  -11.410;  718.880
1020.024;   31.860;  -14.770;  657.580
1020.574;   32.109;   -9.780;  726.160
1021.124;   32.586;   -8.560;  673.580
1021.674;   30.852;  -15.190;  559.120
1022.224;   32.169;  -13.530;  708.940
1022.774;   31.891;  -13.280;  668.820
1023.324;   31.272;  -10.690;  753.520
1023.874;   32.279;  -10.240;  875.760
1024.423;   30.591;  -12.540;  613.700
1024.973;   29.625;  -10.010;  610.760
1025.523;   28.523;  -10.550;  620.960
1026.072;   28.694;  -13.560;  606.420
1026.622;   28.624;  -15.120;  675.740
1027.172;   30.303;  -11.260;  715.660
1027.721;   28.810;  -11.410;  601.220
1028.270;   29.280;  -13.530;  663.400
1028.820;   29.353;  -13.680;  638.080
1029.369;   28.645;  -13.520;  612.700
1029.918;   28.937;  -10.980;  649.840
1030.468;   28.054;  -13.530;  564.780
1031.017;   28.607;  -13.170;  634.800
1031.566;   27.237;  -12.200;  608.900
1032.115;   27.914;   -9.960;  694.500
1032.664;   26.469;  -13.210;  596.480
1033.213;   27.651;  -12.500;  735.420
1033.762;   26.776;  -11.910;  635.620
1034.311;   26.724;   -9.640;  677.220
1034.860;   27.051;  -13.310;  691.000
1035.408;   26.740;  -11.830;  722.720
1035.957;   27.192;  -12.000;  719.540
1036.506;   25.696;  -11.690;  530.800
1037.055;   27.417;  -10.990;  844.320
1037.603;   26.530;  -15.120;  664.000
1038.152;   24.225;  -12.450;  534.760
1038.700;   24.727;  -10.560;  585.740
1039.249;   24.154;  -11.080;  681.220
1039.797;   25.232;  -12.540;  633.360
1040.345;   25.006;  -11.920;  705.420
1040.894;   24.768;  -11.410;  625.300
1041.442;   23.827;  -14.320;  632.200
1041.990;   24.013;  -16.240;  559.160
1042.538;   23.619;  -11.680;  536.180
1043.087;   23.052;  -10.760;  570.860
1043.635;   24.122;  -11.850;  670.500
1044.183;   23.194;  -15.480;  586.400
1044.731;   23.302;  -11.770;  576.000
1045.279;   22.618;  -13.090;  674.920
1045.827;   24.798;  -12.440;  892.400
1046.374;   22.381;  -13.840;  515.420
1046.922;   21.588;  -13.220;  590.580
1047.470;   23.008;  -10.230;  691.300
1048.018;   22.254;  -14.590;  647.960
1048.565;   23.105;  -12.050;  708.600
1049.113;   21.617;  -11.650;  557.000
1049.660;   21.408;  -10.510;  629.660
1050.208;   21.805;  -13.310;  675.640
1050.755;   21.044;  -15.900;  606.580
1051.303;   22.078;  -11.430;  686.820
1051.850;   20.273;   -8.480;  635.120
1052.397;   19.427;  -15.010;  473.960
1052.945;   20.946;  -13.960;  617.760
1053.492;   22.245;  -13.150;  741.840
1054.039;   22.327;   -9.630;  720.180
1054.586;   20.221;  -13.680;  557.240
1055.133;   20.555;  -14.570;  693.140
1055.680;   20.747;  -13.820;  646.620
1056.227;   19.547;  -11.730;  542.780
1056.774;   21.232;  -12.480;  794.980
1057.321;   19.770;  -13.930;  523.260
1057.868;   19.728;  -11.690;  651.320
1058.415;   19.649;   -9.520;  651.980
1058.961;   20.404;  -13.160;  678.940
1059.508;   19.210;  -12.920;  643.820
1060.055;   18.773;  -11.920;  581.780
1060.601;   19.955;  -11.500;  624.300
1061.148;   18.093;  -14.330;  616.820
1061.694;   18.196;  -16.870;  592.580
1062.241;   19.060;  -10.330;  596.320
1062.787;   18.127;  -10.620;  663.140
1063.334;   20.174;  -10.110;  808.560
1063.880;   18.790;  -13.400;  668.360
1064.426;   18.995;  -10.680;  706.820
1064.972;   17.772;   -9.920;  601.340
1065.518;   16.644;  -10.980;  566.640
1066.065;   17.138;  -14.890;  624.460
1066.611;   17.691;  -12.870;  598.800
1067.157;   18.098;  -12.950;  641.860
1067.703;   17.598;  -13.540;  668.480
1068.249;   17.036;  -13.540;  605.220
1068.794;   17.485;  -12.600;  626.880
1069.340;   16.313;  -10.620;  578.960
1069.886;   16.647;  -12.830;  590.700
1070.432;   16.255;  -14.870;  541.720
1070.977;   15.566;  -11.980;  601.080
1071.523;   15.774;   -8.200;  573.060
1072.068;   16.264;  -12.330;  582.000
1072.614;   16.029;  -16.370;  527.760
1073.160;   16.761;  -11.100;  687.040
1073.705;   15.037;  -10.480;  572.520
1074.250;   15.425;  -14.520;  559.900
1074.796;   16.386;  -11.460;  655.160
1075.341;   15.924;  -11.950;  664.100
1075.886;   15.488;  -11.460;  594.240
1076.431;   14.408;  -13.770;  649.880
1076.976;   15.300;  -12.680;  639.220
1077.521;   14.702;  -13.170;  583.080
1078.067;   14.041;  -10.860;  579.400
1078.612;   14.763;  -13.920;  661.620
1079.156;   14.914;  -13.880;  601.540
1079.701;   14.984;  -13.120;  693.260
1080.246;   15.159;   -9.940;  696.300
1080.791;   14.661;  -14.740;  625.020
1081.336;   14.619;  -13.750;  659.320
1081.880;   14.605;  -13.400;  649.680
1082.425;   13.046;  -12.220;  573.480
1082.970;   14.757;  -11.610;  717.040
1083.514;   14.105;  -13.580;  597.000
1084.059;   12.997;  -12.810;  586.720
1084.603;   12.639;  -12.320;  565.840
1085.147;   13.187;  -13.190;  645.220
1085.692;   13.973;  -12.480;  716.800
1086.236;   12.592;  -13.020;  503.140
1086.780;   13.933;   -9.190;  751.440
1087.325;   13.363;  -12.480;  654.620
1087.869;   13.339;  -12.450;  610.700
1088.413;   13.786;  -12.240;  705.040
1088.957;   11.264;   -9.020;  543.400
1089.501;   12.904;  -10.320;  766.640
1090.045;   12.519;  -12.720;  726.480
1090.589;   10.847;  -13.690;  569.920
1091.133;   12.078;  -10.020;  673.340
1091.676;   11.837;  -12.330;  591.940
1092.220;   11.612;  -14.970;  600.920
1092.764;   12.667;  -12.430;  706.960
1093.307;   11.989;   -9.800;  673.780
1093.851;   10.190;  -14.970;  556.540
1094.395;   12.127;  -15.310;  683.140
1094.938;   11.542;  -10.370;  632.520
1095.482;   11.470;  -11.050;  559.800
1096.025;   11.641;  -11.840;  710.880
1096.568;   12.364;  -12.840;  779.280
1097.112;    9.714;  -14.700;  508.180
1097.655;   11.202;   -8.720;  603.000
1098.198;    9.235;  -13.610;  600.180
1098.741;    9.688;  -13.350;  612.860
1099.285;   11.138;  -11.230;  657.300
1099.828;    8.673;  -11.840;  439.400
1100.371;    9.737;  -10.840;  608.160
1100.914;    9.709;  -14.190;  682.660
1101.457;   10.511;  -11.240;  679.900
1101.999;    8.841;  -11.270;  584.680
1102.542;    9.859;  -11.480;  641.440
1103.085;    9.530;  -11.750;  658.500
1103.628;   10.372;  -11.400;  762.060
1104.170;    8.827;  -10.490;  588.280
1104.713;    9.657;  -10.600;  646.700
1105.256;    9.240;  -14.360;  557.440
1105.798;    8.538;  -13.210;  499.980
1106.341;   10.108;  -10.270;  728.900
1106.883;    8.649;  -12.200;  521.340
1107.425;    8.658;  -13.110;  668.180
1107.968;    8.604;  -12.840;  612.380
1108.510;    9.046;   -6.480;  684.960
1109.052;    7.414;  -13.940;  612.620
1109.594;    8.139;  -13.690;  554.440
1110.136;    9.131;  -11.880;  643.220
1110.679;    8.092;   -9.500;  633.080
1111.221;    8.564;  -14.160;  604.460
1111.763;    8.106;  -13.980;  559.220
1112.304;    8.055;  -13.880;  547.140
1112.846;    8.013;  -12.210;  666.240
1113.388;   10.390;  -11.390;  942.180
1113.930;    7.992;  -14.540;  694.200
1114.472;    7.314;  -12.640;  606.540
1115.013;    6.199;  -11.620;  551.280
1115.555;    6.037;  -13.640;  587.100
1116.097;    6.576;  -15.380;  579.480
1116.638;    7.263;  -12.640;  684.600
1117.180;    7.110;   -9.850;  667.740
1117.721;    6.763;  -13.690;  568.580
1118.262;    7.687;  -12.680;  677.960
1118.804;    7.617;  -12.530;  637.340
1119.345;    6.060;  -11.690;  578.400
1119.886;    7.248;  -13.380;  704.040
1120.427;    6.401;  -14.070;  589.020
1120.969;    5.542;  -13.500;  597.920
1121.510;    5.189;  -11.480;  563.060
1122.051;    5.925;  -12.830;  723.580
1122.592;    5.012;  -14.290;  655.420
1123.133;    4.203;  -12.400;  547.940
1123.673;    6.463;  -10.130;  706.480
1124.214;    5.321;  -12.930;  612.460
1124.755;    6.189;  -14.380;  639.460
1125.296;    5.282;  -14.000;  627.320
1125.836;    6.023;  -10.070;  691.500
1126.377;    4.953;  -12.640;  599.660
1126.918;    5.683;  -12.960;  614.980
1127.458;    4.773;  -13.350;  622.220
1127.999;    5.300;  -10.750;  656.980
1128.539;    4.966;  -12.350;  694.240
1129.079;    4.743;  -14.860;  632.720
1129.620;    3.417;  -13.840;  558.100
1130.160;    4.548;  -12.330;  539.480
1130.700;    4.943;  -14.530;  640.840
1131.240;    5.165;  -12.530;  643.700
1131.781;    4.449;  -14.450;  619.680
1132.321;    4.356;   -9.790;  599.120
1132.861;    3.060;  -14.860;  564.200
1133.401;    3.381;  -14.290;  593.940
1133.941;    4.002;  -11.750;  626.280
1134.481;    3.158;   -9.920;  597.580
1135.020;    2.666;  -12.290;  609.160
1135.560;    4.050;  -11.650;  674.940
1136.100;    2.765;  -16.270;  501.160
1136.640;    3.136;  -10.890;  510.480
1137.179;    2.609;  -14.180;  537.960
1137.719;    3.188;  -16.250;  605.400
1138.258;    4.126;  -14.230;  587.360
1138.798;    3.601;   -9.090;  663.780
1139.337;    2.192;  -15.130;  482.840
1139.877;    3.439;  -13.680;  642.360
1140.416;    5.211;  -11.320;  878.060
1140.955;    1.658;  -10.860;  535.380
1141.494;    2.275;  -12.920;  669.280
1142.034;    2.612;  -13.930;  583.520
1142.573;    3.288;  -11.440;  646.280
1143.112;    2.760;  -12.000;  553.480
1143.651;    2.037;  -13.670;  536.480
1144.190;    3.619;  -12.730;  691.640
1144.729;    2.505;  -14.560;  607.420
1145.267;    2.352;  -11.830;  584.900
1145.806;    3.266;  -12.230;  637.040
1146.345;    2.114;  -14.130;  635.020
1146.884;    2.245;  -11.590;  622.500
1147.422;    0.880;  -12.550;  533.060
1147.961;    3.051;  -11.180;  708.460
1148.500;    2.482;  -11.510;  669.720
1149.038;    2.451;  -11.640;  632.500
1149.577;    2.529;  -10.130;  698.640
1150.115;   -0.012;  -13.970;  452.280
1150.653;    1.000;  -14.520;  607.340
1151.192;    0.602;  -12.810;  552.920
1151.730;    1.081;   -9.100;  652.560
1152.268;    0.296;  -12.220;  589.520
1152.806;    0.764;  -14.140;  571.180
1153.344;    0.234;  -12.350;  577.640
1153.882;    1.331;   -8.980;  600.060
1154.421;    0.296;  -15.190;  470.620
1154.958;    0.663;  -15.210;  595.240
1155.496;    2.013;  -12.850;  645.280
1156.034;    0.655;   -9.940;  721.880
1156.572;    1.761;  -13.570;  667.060
1157.110;   -0.389;  -14.590;  473.940
1157.647;    1.139;  -13.030;  676.960
1158.185;    0.069;  -12.140;  564.320
1158.723;   -0.647;  -14.390;  509.200
1159.260;    0.970;  -14.090;  701.700
1159.798;    0.767;  -11.920;  658.160
1160.335;   -0.223;  -11.110;  631.820

